time,voltage
0,0.495245655
0.0020004,0.497163725
0.0040008,0.528313171
0.0060012,0.582903753
0.0080016,0.639057792
0.010002,0.56860482
0.0120024,0.589625318
0.014002801,0.519328514
0.016003201,0.52925944
0.018003601,0.522402652
0.020004001,0.611688377
0.022004401,0.551170146
0.024004801,0.527120115
0.026005201,0.633821782
0.028005601,0.566155155
0.030006001,0.55698028
0.032006401,0.584379688
0.034006801,0.501814494
0.036007201,0.480411859
0.038007602,0.525030751
0.040008002,0.500900096
0.042008402,0.523938422
0.044008802,0.611631111
0.046009202,0.488580574
0.048009602,0.383542249
0.050010002,0.438164802
0.052010402,0.572903238
0.054010802,0.513892278
0.056011202,0.348781119
0.058011602,0.551968149
0.060012002,0.465749052
0.062012402,0.426873332
0.064012803,0.454062254
0.066013203,0.469581313
0.068013603,0.431096359
0.070014003,0.464562432
0.072014403,0.466166773
0.074014803,0.371146703
0.076015203,0.310074602
0.078015603,0.325647803
0.080016003,0.242526092
0.082016403,0.29241674
0.084016803,0.36797675
0.086017203,0.24657502
0.088017604,0.271149595
0.090018004,0.269530984
0.092018404,0.221142561
0.094018804,0.225345267
0.096019204,0.284883402
0.098019604,0.231984974
0.100020004,0.30676882
0.102020404,0.244829724
0.104020804,0.317819861
0.106021204,0.15920642
0.108021604,0.141288477
0.110022004,0.185564117
0.112022404,0.164363652
0.114022805,0.157345397
0.116023205,0.147031427
0.118023605,0.149982342
0.120024005,0.164049649
0.122024405,0.106674786
0.124024805,0.163298
0.126025205,0.213477967
0.128025605,0.106244385
0.130026005,0.188007952
0.132026405,0.091822004
0.134026805,0.128356858
0.136027205,0.153850702
0.138027606,0.109982995
0.140028006,0.137490207
0.142028406,0.090318745
0.144028806,0.141499191
0.146029206,0.051418881
0.148029606,0.085933905
0.150030006,0.05479156
0.152030406,0.074036309
0.154030806,0.07898351
0.156031206,0.041336633
0.158031606,0.008100275
0.160032006,0.065469721
0.162032406,0.133416277
0.164032807,0.025892441
0.166033207,0.085629335
0.168033607,0.078615195
0.170034007,0.172434432
0.172034407,0.09343612
0.174034807,0.233812688
0.176035207,0.178729491
0.178035607,0.128057793
0.180036007,0.078860065
0.182036407,0.203230191
0.184036807,0.174756747
0.186037207,0.181919853
0.188037608,0.178496433
0.190038008,0.184160312
0.192038408,0.124776708
0.194038808,0.257840158
0.196039208,0.239833994
0.198039608,0.161119758
0.200040008,0.218116077
0.202040408,0.22688303
0.204040808,0.239863651
0.206041208,0.269538492
0.208041608,0.148774086
0.210042008,0.227053587
0.212042408,0.245777322
0.214042809,0.247488014
0.216043209,0.250871343
0.218043609,0.299999436
0.220044009,0.178198833
0.222044409,0.26526227
0.224044809,0.244771008
0.226045209,0.286374782
0.228045609,0.20999232
0.230046009,0.262716322
0.232046409,0.270778158
0.234046809,0.208331326
0.236047209,0.280311068
0.23804761,0.179964489
0.24004801,0.247873134
0.24204841,0.21285234
0.24404881,0.298647951
0.24604921,0.314164076
0.24804961,0.198570322
0.25005001,0.301436384
0.25205041,0.176491897
0.25405081,0.189073488
0.25605121,0.276377526
0.25805161,0.257757051
0.26005201,0.322846076
0.26205241,0.237506268
0.264052811,0.142266483
0.266053211,0.172206096
0.268053611,0.234518602
0.270054011,0.243775946
0.272054411,0.158535377
0.274054811,0.15738256
0.276055211,0.097415116
0.278055611,0.181647106
0.280056011,0.096512689
0.282056411,0.176926111
0.284056811,0.077499867
0.286057211,0.10635163
0.288057612,0.062795597
0.290058012,0.081322397
0.292058412,0.059584729
0.294058812,0.05760379
0.296059212,0.07172327
0.298059612,0.134726652
0.300060012,0.084367069
0.302060412,-0.003236323
0.304060812,0.157353958
0.306061212,0.035948862
0.308061612,0.067352902
0.310062012,0.015582062
0.312062412,0.030490093
0.314062813,0.044615272
0.316063213,-0.040558941
0.318063613,-0.030179717
0.320064013,-0.108135191
0.322064413,-0.116640805
0.324064813,0.049796026
0.326065213,-0.010801015
0.328065613,-0.119394858
0.330066013,-0.05427215
0.332066413,-0.067412375
0.334066813,-0.03926007
0.336067213,-0.075115543
0.338067614,-0.105899952
0.340068014,-0.1054554
0.342068414,-0.06236144
0.344068814,-0.189174888
0.346069214,-0.136020532
0.348069614,-0.080199867
0.350070014,-0.093490614
0.352070414,-0.156912062
0.354070814,-0.121626294
0.356071214,-0.156949238
0.358071614,-0.145029643
0.360072014,-0.18584756
0.362072414,-0.128663362
0.364072815,-0.150485451
0.366073215,-0.125922309
0.368073615,-0.250600673
0.370074015,-0.155614128
0.372074415,-0.176265575
0.374074815,-0.216696874
0.376075215,-0.213933656
0.378075615,-0.198826565
0.380076015,-0.067664354
0.382076415,-0.173501226
0.384076815,-0.104093586
0.386077215,-0.205899214
0.388077616,-0.139437365
0.390078016,-0.0970712
0.392078416,-0.193710814
0.394078816,-0.060107703
0.396079216,-0.10336314
0.398079616,-0.188913121
0.400080016,-0.229021647
0.402080416,-0.204651737
0.404080816,-0.186172438
0.406081216,-0.15393449
0.408081616,-0.080374699
0.410082016,-0.116709968
0.412082416,-0.029519189
0.414082817,-0.08820185
0.416083217,-0.057087889
0.418083617,-0.04514723
0.420084017,-0.152000947
0.422084417,-0.083601609
0.424084817,-0.076265849
0.426085217,-0.044481603
0.428085617,-0.154093499
0.430086017,-0.103631539
0.432086417,-0.158659528
0.434086817,-0.07232732
0.436087217,-0.115195821
0.438087618,-0.018648101
0.440088018,-0.112701179
0.442088418,-0.172445568
0.444088818,-0.003351787
0.446089218,-0.11599418
0.448089618,-0.03234946
0.450090018,-0.138972778
0.452090418,-0.01157159
0.454090818,-0.117701231
0.456091218,-0.052711194
0.458091618,-0.124123576
0.460092018,-0.074014267
0.462092418,-0.077293624
0.464092819,-0.075304226
0.466093219,-0.139061508
0.468093619,-0.112903739
0.470094019,-0.123565213
0.472094419,-0.055508688
0.474094819,-0.084148394
0.476095219,-0.066895794
0.478095619,-0.13198937
0.480096019,-0.146235635
0.482096419,-0.077296311
0.484096819,-0.165090967
0.486097219,-0.234854479
0.48809762,-0.218674037
0.49009802,-0.157770944
0.49209842,-0.238358546
0.49409882,-0.191410837
0.49609922,-0.205451914
0.49809962,-0.260337982
0.50010002,-0.18914232
0.50210042,-0.209964411
0.50410082,-0.154575311
0.50610122,-0.175781257
0.50810162,-0.192114497
0.51010202,-0.185376199
0.51210242,-0.200197873
0.514102821,-0.317405605
0.516103221,-0.244089623
0.518103621,-0.232705895
0.520104021,-0.178752745
0.522104421,-0.25180622
0.524104821,-0.315998567
0.526105221,-0.187133088
0.528105621,-0.277809072
0.530106021,-0.30774836
0.532106421,-0.308458547
0.534106821,-0.312051797
0.536107221,-0.292381102
0.538107622,-0.216007775
0.540108022,-0.240757785
0.542108422,-0.32403222
0.544108822,-0.221456568
0.546109222,-0.358579374
0.548109622,-0.309325222
0.550110022,-0.235130546
0.552110422,-0.219841106
0.554110822,-0.255571085
0.556111222,-0.294611462
0.558111622,-0.347668865
0.560112022,-0.179151832
0.562112422,-0.34295137
0.564112823,-0.235576203
0.566113223,-0.248582721
0.568113623,-0.276472316
0.570114023,-0.214770067
0.572114423,-0.219002262
0.574114823,-0.179691895
0.576115223,-0.205101726
0.578115623,-0.261191907
0.580116023,-0.176055365
0.582116423,-0.187173747
0.584116823,-0.145196997
0.586117223,-0.152142355
0.588117624,-0.103386032
0.590118024,-0.180453027
0.592118424,-0.045570936
0.594118824,-0.116355954
0.596119224,-0.139740664
0.598119624,-0.131633173
0.600120024,-0.120558934
0.602120424,-0.02691635
0.604120824,-0.129422889
0.606121224,-0.080213117
0.608121624,-0.045238436
0.610122024,0.017888898
0.612122424,-0.102046471
0.614122825,-0.051942892
0.616123225,-0.09008466
0.618123625,0.015918028
0.620124025,-0.048404407
0.622124425,-0.044715385
0.624124825,0.019707673
0.626125225,0.007211533
0.628125625,0.017209851
0.630126025,0.02184369
0.632126425,0.009924621
0.634126825,0.116405579
0.636127225,0.080706974
0.638127626,-0.034576688
0.640128026,0.065520177
0.642128426,0.062107296
0.644128826,0.11112008
0.646129226,0.121813872
0.648129626,0.061376747
0.650130026,0.010015543
0.652130426,-0.001324933
0.654130826,0.117209728
0.656131226,0.089466776
0.658131626,-0.016321654
0.660132026,0.087355384
0.662132426,-0.016595536
0.664132827,0.042352701
0.666133227,0.063702728
0.668133627,0.075921424
0.670134027,0.08593171
0.672134427,0.091142051
0.674134827,0.048956101
0.676135227,0.028970485
0.678135627,0.149861854
0.680136027,0.11914433
0.682136427,0.029986654
0.684136827,0.122661665
0.686137227,0.036222305
0.688137628,-0.02801791
0.690138028,0.057041601
0.692138428,0.100438373
0.694138828,0.026755016
0.696139228,0.067036795
0.698139628,0.127139167
0.700140028,0.019086973
0.702140428,0.109074497
0.704140828,0.082872725
0.706141228,-0.00048024
0.708141628,0.088164941
0.710142028,0.112712856
0.712142428,0.06155491
0.714142829,0.00593251
0.716143229,0.049202505
0.718143629,0.029888814
0.720144029,-0.013499771
0.722144429,0.078477822
0.724144829,-0.049187949
0.726145229,-0.024547313
0.728145629,-0.047225347
0.730146029,0.072277992
0.732146429,0.048987066
0.734146829,0.013820025
0.736147229,0.104579907
0.73814763,0.036975055
0.74014803,-0.04644168
0.74214843,0.048915648
0.74414883,0.07450207
0.74614923,0.025056776
0.74814963,-0.001100209
0.75015003,0.127270654
0.75215043,0.082393235
0.75415083,0.084239965
0.75615123,0.07317193
0.75815163,0.026702477
0.76015203,0.065780619
0.76215243,0.025879553
0.764152831,0.026224218
0.766153231,0.084485386
0.768153631,0.068873852
0.770154031,0.096044407
0.772154431,0.166665257
0.774154831,0.026225871
0.776155231,0.096714127
0.778155631,0.135473004
0.780156031,0.159461481
0.782156431,0.055740025
0.784156831,0.16084126
0.786157231,0.184610205
0.788157632,0.078072004
0.790158032,0.153036627
0.792158432,0.120804989
0.794158832,0.117641868
0.796159232,0.309569198
0.798159632,0.161883024
0.800160032,0.207483138
0.802160432,0.202085287
0.804160832,0.229716944
0.806161232,0.266561019
0.808161632,0.274455612
0.810162032,0.189603091
0.812162432,0.270121286
0.814162833,0.193776539
0.816163233,0.344232116
0.818163633,0.264470293
0.820164033,0.321605136
0.822164433,0.212836833
0.824164833,0.339616428
0.826165233,0.260521694
0.828165633,0.282504123
0.830166033,0.305064195
0.832166433,0.251617569
0.834166833,0.291137805
0.836167233,0.276163935
0.838167634,0.219536077
0.840168034,0.243942259
0.842168434,0.410301115
0.844168834,0.318992561
0.846169234,0.341085055
0.848169634,0.319270715
0.850170034,0.290785845
0.852170434,0.242085738
0.854170834,0.245226992
0.856171234,0.352821488
0.858171634,0.273389028
0.860172034,0.265855601
0.862172434,0.351792802
0.864172835,0.311452761
0.866173235,0.233026264
0.868173635,0.333543725
0.870174035,0.239997668
0.872174435,0.203257821
0.874174835,0.285140962
0.876175235,0.201795933
0.878175635,0.224045407
0.880176035,0.158712104
0.882176435,0.20343034
0.884176835,0.293785125
0.886177235,0.235688256
0.888177636,0.23164787
0.890178036,0.22755331
0.892178436,0.17558415
0.894178836,0.14427887
0.896179236,0.173050148
0.898179636,0.238438781
0.900180036,0.240563752
0.902180436,0.151247432
0.904180836,0.15855786
0.906181236,0.20644863
0.908181636,0.082691096
0.910182036,0.115208567
0.912182436,0.159923596
0.914182837,0.216784351
0.916183237,-0.008864886
0.918183637,0.063706555
0.920184037,0.117327841
0.922184437,0.166006663
0.924184837,0.089954538
0.926185237,0.090995006
0.928185637,-0.006450224
0.930186037,0.044740424
0.932186437,0.027235736
0.934186837,0.118663198
0.936187237,-0.022967976
0.938187638,0.047810264
0.940188038,-0.022411237
0.942188438,0.028311274
0.944188838,0.006487991
0.946189238,0.032368147
0.948189638,-0.018121193
0.950190038,-0.058654381
0.952190438,0.025232724
0.954190838,0.003034376
0.956191238,0.068165482
0.958191638,-0.043225821
0.960192038,-0.034814646
0.962192438,-0.053088609
0.964192839,-0.073133691
0.966193239,-0.063980402
0.968193639,0.025285781
0.970194039,-0.010827281
0.972194439,-0.020464732
0.974194839,-0.075628764
0.976195239,0.005506548
0.978195639,0.081303784
0.980196039,-0.01172786
0.982196439,-0.089964821
0.984196839,0.034719126
0.986197239,0.00969291
0.98819764,-0.030904481
0.99019804,-0.089233677
0.99219844,0.040767439
0.99419884,-0.077950429
0.99619924,0.034392588
0.99819964,-0.052542364
1.00020004,0.485230201
1.00220044,0.421942982
1.00420084,0.547095225
1.00620124,0.49215921
1.00820164,0.559823143
1.01020204,0.602986488
1.01220244,0.497571149
1.014202841,0.489155127
1.016203241,0.485456932
1.018203641,0.456788354
1.020204041,0.4211172
1.022204441,0.524082488
1.024204841,0.522926922
1.026205241,0.444195451
1.028205641,0.410198624
1.030206041,0.47265233
1.032206441,0.468318197
1.034206841,0.358165186
1.036207241,0.412812161
1.038207642,0.449635652
1.040208042,0.324693656
1.042208442,0.344915831
1.044208842,0.379156862
1.046209242,0.341284617
1.048209642,0.394447374
1.050210042,0.330688044
1.052210442,0.340255617
1.054210842,0.272671413
1.056211242,0.270297641
1.058211642,0.215063498
1.060212042,0.300860639
1.062212442,0.237248698
1.064212843,0.226521738
1.066213243,0.19720763
1.068213643,0.153150839
1.070214043,0.218969755
1.072214443,0.139282346
1.074214843,0.118065409
1.076215243,0.084808836
1.078215643,0.110678623
1.080216043,0.043258138
1.082216443,0.051282207
1.084216843,-0.039860899
1.086217243,0.016534448
1.088217644,-0.001325976
1.090218044,-0.008810989
1.092218444,-0.033188974
1.094218844,-0.084802553
1.096219244,-0.08814854
1.098219644,-0.095574628
1.100220044,-0.124534029
1.102220444,-0.072584105
1.104220844,-0.103598682
1.106221244,-0.118212273
1.108221644,-0.145568403
1.110222044,-0.160614319
1.112222444,-0.19877807
1.114222845,-0.196285425
1.116223245,-0.085678312
1.118223645,-0.139395632
1.120224045,-0.262567504
1.122224445,-0.273671821
1.124224845,-0.261650411
1.126225245,-0.223018961
1.128225645,-0.301591683
1.130226045,-0.286305039
1.132226445,-0.213421827
1.134226845,-0.307664294
1.136227245,-0.304693779
1.138227646,-0.275405987
1.140228046,-0.340012353
1.142228446,-0.229988008
1.144228846,-0.212140398
1.146229246,-0.324225125
1.148229646,-0.407387487
1.150230046,-0.252142474
1.152230446,-0.313372601
1.154230846,-0.267675741
1.156231246,-0.310658289
1.158231646,-0.279953229
1.160232046,-0.237091288
1.162232446,-0.200214169
1.164232847,-0.271962784
1.166233247,-0.251143478
1.168233647,-0.284876314
1.170234047,-0.296145598
1.172234447,-0.242163584
1.174234847,-0.263213734
1.176235247,-0.216897559
1.178235647,-0.260103851
1.180236047,-0.366741844
1.182236447,-0.247493009
1.184236847,-0.369854026
1.186237247,-0.244831475
1.188237648,-0.251058
1.190238048,-0.192224905
1.192238448,-0.220034928
1.194238848,-0.188821441
1.196239248,-0.212843675
1.198239648,-0.17491773
1.200240048,-0.11074175
1.202240448,-0.193143697
1.204240848,-0.132498085
1.206241248,-0.166995728
1.208241648,-0.134594427
1.210242048,-0.170928973
1.212242448,-0.113392308
1.214242849,-0.157086313
1.216243249,-0.087898033
1.218243649,-0.128737316
1.220244049,-0.05772454
1.222244449,-0.116515448
1.224244849,-0.066896365
1.226245249,-0.100230377
1.228245649,-0.115248662
1.230246049,-0.078505709
1.232246449,-0.014911877
1.234246849,-0.088216853
1.236247249,-0.024638586
1.23824765,0.014800995
1.24024805,-0.124584084
1.24224845,-0.011518354
1.24424885,-0.025602414
1.24624925,-0.045923822
1.24824965,-0.142393673
1.25025005,-0.039238329
1.25225045,-0.006560075
1.25425085,-0.065555051
1.25625125,-0.016068516
1.25825165,-0.00193608
1.26025205,-0.079103107
1.26225245,0.073460125
1.264252851,-0.066529133
1.266253251,-0.028492016
1.268253651,-0.070939379
1.270254051,-0.008264682
1.272254451,-0.082236012
1.274254851,-0.07505936
1.276255251,-0.066564816
1.278255651,0.032576928
1.280256051,-0.056795504
1.282256451,-0.097710042
1.284256851,-0.074110421
1.286257251,-0.050262633
1.288257652,-0.058080792
1.290258052,-0.008095218
1.292258452,-0.062749414
1.294258852,-0.079915936
1.296259252,-0.037649025
1.298259652,-0.054745114
1.300260052,-0.113913325
1.302260452,0.002859144
1.304260852,-0.177723971
1.306261252,-0.111186193
1.308261652,-0.123128134
1.310262052,-0.076132673
1.312262452,-0.097152245
1.314262853,-0.158476087
1.316263253,-0.055911054
1.318263653,-0.091503774
1.320264053,-0.087358726
1.322264453,-0.111784395
1.324264853,-0.113351798
1.326265253,0.000969066
1.328265653,-0.004540641
1.330266053,-0.095719194
1.332266453,-0.160386174
1.334266853,-0.17062158
1.336267253,-0.02396014
1.338267654,-0.121697733
1.340268054,-0.157515563
1.342268454,-0.143898518
1.344268854,-0.056111945
1.346269254,0.047337255
1.348269654,0.007055428
1.350270054,-0.006812398
1.352270454,-0.057494027
1.354270854,-0.064426383
1.356271254,-0.018547635
1.358271654,0.014707856
1.360272054,-0.066360774
1.362272454,-0.010728421
1.364272855,-0.041378572
1.366273255,0.084685717
1.368273655,-0.010360753
1.370274055,0.016279284
1.372274455,-0.000607088
1.374274855,-0.016352709
1.376275255,0.005119123
1.378275655,-0.01063405
1.380276055,-0.05407448
1.382276455,0.063669922
1.384276855,0.051727448
1.386277255,0.107330585
1.388277656,0.163790306
1.390278056,0.152011443
1.392278456,0.075337915
1.394278856,-0.052096707
1.396279256,0.092208076
1.398279656,0.059924747
1.400280056,0.145856891
1.402280456,0.112748185
1.404280856,0.250046539
1.406281256,0.221420566
1.408281656,0.110392612
1.410282056,0.23474467
1.412282456,0.052443228
1.414282857,0.196882657
1.416283257,0.274400733
1.418283657,0.236242097
1.420284057,0.168765079
1.422284457,0.244182598
1.424284857,0.268328035
1.426285257,0.265040879
1.428285657,0.164503136
1.430286057,0.314632645
1.432286457,0.207109238
1.434286857,0.225922369
1.436287257,0.200901163
1.438287658,0.14909876
1.440288058,0.286433534
1.442288458,0.231736227
1.444288858,0.26677256
1.446289258,0.288769588
1.448289658,0.204084767
1.450290058,0.345466829
1.452290458,0.277671057
1.454290858,0.304726675
1.456291258,0.318156362
1.458291658,0.282610671
1.460292058,0.23131401
1.462292458,0.35289605
1.464292859,0.282493269
1.466293259,0.393426318
1.468293659,0.28585344
1.470294059,0.288781773
1.472294459,0.300095909
1.474294859,0.257792752
1.476295259,0.189306402
1.478295659,0.308207928
1.480296059,0.266015147
1.482296459,0.192041942
1.484296859,0.231523786
1.486297259,0.155137765
1.48829766,0.210523321
1.49029806,0.233119926
1.49229846,0.22512135
1.49429886,0.222792119
1.49629926,0.190063621
1.49829966,0.250686009
1.50030006,0.132864515
1.50230046,0.237945455
1.50430086,0.265475045
1.50630126,0.197429013
1.50830166,0.122884894
1.51030206,0.139569775
1.51230246,0.146724591
1.514302861,0.13415236
1.516303261,0.160138999
1.518303661,0.210828287
1.520304061,0.174146777
1.522304461,0.137861965
1.524304861,0.084957484
1.526305261,0.184743566
1.528305661,0.144611638
1.530306061,0.086887992
1.532306461,0.116265446
1.534306861,-0.020256043
1.536307261,-0.017635489
1.538307662,0.170595349
1.540308062,0.073037063
1.542308462,0.10492024
1.544308862,0.025781444
1.546309262,0.034551564
1.548309662,0.083127649
1.550310062,0.122781468
1.552310462,0.123057298
1.554310862,0.104565949
1.556311262,0.046905088
1.558311662,-0.025605158
1.560312062,0.16780688
1.562312462,0.108860437
1.564312863,0.093695386
1.566313263,0.039278807
1.568313663,0.048176163
1.570314063,0.122686205
1.572314463,0.097204384
1.574314863,0.064180881
1.576315263,0.076645137
1.578315663,0.129535602
1.580316063,0.016632288
1.582316463,0.068783712
1.584316863,0.061133449
1.586317263,0.120670274
1.588317664,0.084602127
1.590318064,0.135560324
1.592318464,0.148853444
1.594318864,0.020437807
1.596319264,0.20386486
1.598319664,0.142458301
1.600320064,0.130891905
1.602320464,0.188255377
1.604320864,0.221272724
1.606321264,0.048307835
1.608321664,0.079658143
1.610322064,0.098823736
1.612322464,0.186248971
1.614322865,0.169207117
1.616323265,0.196352374
1.618323665,0.187845795
1.620324065,0.078678162
1.622324465,0.159020142
1.624324865,0.170091382
1.626325265,0.127874797
1.628325665,0.161143983
1.630326065,0.267895145
1.632326465,0.17404358
1.634326865,0.076049039
1.636327265,0.21869212
1.638327666,0.101179992
1.640328066,0.134403948
1.642328466,0.232325344
1.644328866,0.141885548
1.646329266,0.114621944
1.648329666,0.174865705
1.650330066,0.102506252
1.652330466,0.162434802
1.654330866,0.059980488
1.656331266,0.072567369
1.658331666,0.116711616
1.660332066,0.159010777
1.662332466,0.115472539
1.664332867,0.10052074
1.666333267,0.083780511
1.668333667,0.061223217
1.670334067,0.151790904
1.672334467,0.064518417
1.674334867,0.058299882
1.676335267,0.040211104
1.678335667,0.053144564
1.680336067,-0.004114395
1.682336467,-0.013127017
1.684336867,-0.030279505
1.686337267,0.051444108
1.688337668,-0.01668198
1.690338068,-0.040560456
1.692338468,-0.047453712
1.694338868,-0.03017392
1.696339268,-0.011324047
1.698339668,0.011421311
1.700340068,-0.105543129
1.702340468,-0.10996756
1.704340868,0.000495042
1.706341268,-0.06087901
1.708341668,-0.101986618
1.710342068,-0.116552338
1.712342468,-0.121231832
1.714342869,-0.057135304
1.716343269,-0.127522303
1.718343669,-0.194059574
1.720344069,-0.124252433
1.722344469,-0.178367032
1.724344869,-0.150703259
1.726345269,-0.21799793
1.728345669,-0.138473049
1.730346069,-0.294649282
1.732346469,-0.241580303
1.734346869,-0.220482282
1.736347269,-0.22619822
1.73834767,-0.18301192
1.74034807,-0.303495131
1.74234847,-0.223204295
1.74434887,-0.287812738
1.74634927,-0.210448479
1.74834967,-0.17524284
1.75035007,-0.25465576
1.75235047,-0.198992596
1.75435087,-0.264854711
1.75635127,-0.179032439
1.75835167,-0.197101267
1.76035207,-0.31257625
1.76235247,-0.285962312
1.764352871,-0.308205475
1.766353271,-0.249779639
1.768353671,-0.287628656
1.770354071,-0.289577054
1.772354471,-0.22383351
1.774354871,-0.261235805
1.776355271,-0.259087446
1.778355671,-0.246922741
1.780356071,-0.237997371
1.782356471,-0.250572291
1.784356871,-0.235375283
1.786357271,-0.150432598
1.788357672,-0.240824098
1.790358072,-0.217421311
1.792358472,-0.199188275
1.794358872,-0.28198042
1.796359272,-0.210252392
1.798359672,-0.121628709
1.800360072,-0.249781037
1.802360472,-0.236245605
1.804360872,-0.082544593
1.806361272,-0.100478923
1.808361672,-0.163972559
1.810362072,-0.1045199
1.812362472,-0.060639431
1.814362873,-0.14889832
1.816363273,-0.124197505
1.818363673,-0.086575513
1.820364073,-0.114705194
1.822364473,-0.174035681
1.824364873,-0.093172319
1.826365273,-0.093209504
1.828365673,-0.185486708
1.830366073,-0.070877183
1.832366473,-0.08843289
1.834366873,-0.069618822
1.836367273,-0.157234675
1.838367674,-0.076769466
1.840368074,-0.07992532
1.842368474,-0.026859085
1.844368874,-0.097374622
1.846369274,-0.135261387
1.848369674,-0.021824055
1.850370074,-0.12199955
1.852370474,-0.193539448
1.854370874,-0.094303351
1.856371274,-0.112256644
1.858371674,-0.160547694
1.860372074,-0.117575643
1.862372474,-0.091159006
1.864372875,-0.041274571
1.866373275,-0.123133622
1.868373675,-0.099504752
1.870374075,-0.088267294
1.872374475,-0.149954553
1.874374875,-0.176296419
1.876375275,-0.184723587
1.878375675,-0.112934247
1.880376075,-0.144956155
1.882376475,-0.193718261
1.884376875,-0.10959987
1.886377275,-0.095046169
1.888377676,-0.189021727
1.890378076,-0.195289418
1.892378476,-0.068601574
1.894378876,-0.125250315
1.896379276,-0.175154511
1.898379676,-0.04974427
1.900380076,-0.254332808
1.902380476,-0.209244997
1.904380876,-0.237705712
1.906381276,-0.222885591
1.908381676,-0.123476728
1.910382076,-0.124345383
1.912382476,-0.175362585
1.914382877,-0.223848197
1.916383277,-0.254014664
1.918383677,-0.164482063
1.920384077,-0.179931258
1.922384477,-0.223396417
1.924384877,-0.235204588
1.926385277,-0.25657031
1.928385677,-0.12303086
1.930386077,-0.306398771
1.932386477,-0.17284693
1.934386877,-0.173112334
1.936387277,-0.183260732
1.938387678,-0.173174233
1.940388078,-0.203248086
1.942388478,-0.14426222
1.944388878,-0.192864843
1.946389278,-0.126352336
1.948389678,-0.269260476
1.950390078,-0.286010382
1.952390478,-0.238989644
1.954390878,-0.177053189
1.956391278,-0.139752121
1.958391678,-0.13197911
1.960392078,-0.13747481
1.962392478,-0.074333569
1.964392879,-0.20165226
1.966393279,-0.18395909
1.968393679,-0.169794035
1.970394079,-0.120692499
1.972394479,-0.06019203
1.974394879,-0.154329532
1.976395279,-0.08134336
1.978395679,-0.205586849
1.980396079,-0.146754981
1.982396479,-0.094846937
1.984396879,-0.117078738
1.986397279,-0.017958239
1.98839768,-0.071481956
1.99039808,-0.039185159
1.99239848,-0.059768631
1.99439888,0.019846784
1.99639928,0.019843465
1.99839968,-0.027555947
2.00040008,0.489590499
2.00240048,0.474487825
2.00440088,0.501352763
2.00640128,0.571582283
2.00840168,0.516763366
2.01040208,0.480729164
2.01240248,0.61415168
2.014402881,0.519453797
2.016403281,0.594027019
2.018403681,0.607503028
2.020404081,0.592394793
2.022404481,0.517325497
2.024404881,0.508715673
2.026405281,0.587091437
2.028405681,0.539518586
2.030406081,0.639967531
2.032406481,0.569407058
2.034406881,0.576335666
2.036407281,0.464314105
2.038407682,0.513717956
2.040408082,0.561244442
2.042408482,0.526805154
2.044408882,0.472342967
2.046409282,0.481498314
2.048409682,0.568871977
2.050410082,0.522990171
2.052410482,0.454197611
2.054410882,0.512183546
2.056411282,0.405947773
2.058411682,0.461360815
2.060412082,0.394244687
2.062412482,0.445801938
2.064412883,0.406805173
2.066413283,0.396720268
2.068413683,0.420305094
2.070414083,0.445323818
2.072414483,0.40494611
2.074414883,0.400021216
2.076415283,0.361303141
2.078415683,0.315494836
2.080416083,0.327728409
2.082416483,0.263020317
2.084416883,0.315979782
2.086417283,0.351101727
2.088417684,0.264504848
2.090418084,0.340465136
2.092418484,0.339340256
2.094418884,0.28795904
2.096419284,0.174240027
2.098419684,0.126659028
2.100420084,0.085771006
2.102420484,0.160511544
2.104420884,0.191093496
2.106421284,0.273213519
2.108421684,0.270712876
2.110422084,0.295920728
2.112422484,0.131872793
2.114422885,0.209999255
2.116423285,0.127820029
2.118423685,0.231650577
2.120424085,0.171095224
2.122424485,0.208372961
2.124424885,0.157955142
2.126425285,0.084801815
2.128425685,0.178501121
2.130426085,0.160618996
2.132426485,0.055389286
2.134426885,0.149319461
2.136427285,0.138631877
2.138427686,0.082289658
2.140428086,0.093513616
2.142428486,0.045337318
2.144428886,0.083743519
2.146429286,0.069680458
2.148429686,0.0436525
2.150430086,0.056265778
2.152430486,0.017620718
2.154430886,0.140384406
2.156431286,0.137445755
2.158431686,0.101880413
2.160432086,0.179313486
2.162432486,0.08110425
2.164432887,0.103724688
2.166433287,0.107882747
2.168433687,0.147087246
2.170434087,0.264480189
2.172434487,0.099481864
2.174434887,0.054170736
2.176435287,0.110335944
2.178435687,0.092015661
2.180436087,0.120275626
2.182436487,0.042258133
2.184436887,0.155271991
2.186437287,0.13141288
2.188437688,0.219985823
2.190438088,0.263846272
2.192438488,0.133359524
2.194438888,0.232642255
2.196439288,0.210115867
2.198439688,0.193004531
2.200440088,0.217825605
2.202440488,0.218872852
2.204440888,0.14058735
2.206441288,0.23623135
2.208441688,0.282330859
2.210442088,0.214189053
2.212442488,0.14613589
2.214442889,0.195787776
2.216443289,0.193189968
2.218443689,0.288097406
2.220444089,0.197061276
2.222444489,0.222610124
2.224444889,0.223782562
2.226445289,0.266744743
2.228445689,0.296142443
2.230446089,0.253423914
2.232446489,0.260959675
2.234446889,0.309253092
2.236447289,0.225648661
2.23844769,0.198120289
2.24044809,0.264665595
2.24244849,0.228909868
2.24444889,0.190219845
2.24644929,0.190505227
2.24844969,0.349096166
2.25045009,0.217165487
2.25245049,0.222120964
2.25445089,0.208921628
2.25645129,0.359442827
2.25845169,0.16329968
2.26045209,0.189853996
2.26245249,0.15434123
2.264452891,0.121725878
2.266453291,0.213678371
2.268453691,0.218844346
2.270454091,0.240099519
2.272454491,0.128991653
2.274454891,0.18353158
2.276455291,0.219591172
2.278455691,0.172800344
2.280456091,0.17759711
2.282456491,0.106428672
2.284456891,0.13778855
2.286457291,0.055736005
2.288457692,0.133800736
2.290458092,0.115149249
2.292458492,0.171540123
2.294458892,0.113920245
2.296459292,0.058846202
2.298459692,0.101942434
2.300460092,0.102865711
2.302460492,0.059683573
2.304460892,0.096298137
2.306461292,0.089695464
2.308461692,-0.027516715
2.310462092,0.007008406
2.312462492,0.022376435
2.314462893,0.014112244
2.316463293,-0.034462081
2.318463693,-0.00473229
2.320464093,-0.081980824
2.322464493,-0.021194599
2.324464893,-0.157293076
2.326465293,-0.098072573
2.328465693,-0.051670651
2.330466093,-0.139228086
2.332466493,-0.046937791
2.334466893,-0.108795414
2.336467293,-0.082789463
2.338467694,-0.100129923
2.340468094,-0.107941493
2.342468494,-0.14917161
2.344468894,-0.238710867
2.346469294,-0.226818172
2.348469694,-0.08075115
2.350470094,-0.136903144
2.352470494,-0.159348783
2.354470894,-0.173211616
2.356471294,-0.222915914
2.358471694,-0.139352874
2.360472094,-0.145377126
2.362472494,-0.17219397
2.364472895,-0.181960433
2.366473295,-0.132078571
2.368473695,-0.151849251
2.370474095,-0.114377786
2.372474495,-0.174089128
2.374474895,-0.125263624
2.376475295,-0.156135014
2.378475695,-0.057399684
2.380476095,-0.22720605
2.382476495,-0.175542487
2.384476895,-0.226198371
2.386477295,-0.057806622
2.388477696,-0.199411368
2.390478096,-0.232707025
2.392478496,-0.091915046
2.394478896,-0.073903458
2.396479296,-0.12383542
2.398479696,-0.072361934
2.400480096,-0.132749979
2.402480496,-0.071762946
2.404480896,-0.125591233
2.406481296,-0.141110413
2.408481696,-0.22729805
2.410482096,-0.112499968
2.412482496,-0.062914232
2.414482897,-0.065627234
2.416483297,-0.105107693
2.418483697,-0.175533071
2.420484097,-0.145423318
2.422484497,-0.079212654
2.424484897,0.029044884
2.426485297,-0.105231714
2.428485697,-0.03840663
2.430486097,-0.077359476
2.432486497,-0.019067388
2.434486897,-0.09399298
2.436487297,-0.025307715
2.438487698,-0.04127996
2.440488098,-0.059590251
2.442488498,-0.086706897
2.444488898,-0.109123108
2.446489298,-0.189707812
2.448489698,-0.152462866
2.450490098,-0.12790588
2.452490498,-0.116548497
2.454490898,-0.079267216
2.456491298,-0.121761958
2.458491698,-0.133800528
2.460492098,-0.034203446
2.462492498,-0.079274677
2.464492899,-0.04408734
2.466493299,-0.12658671
2.468493699,-0.079839624
2.470494099,-0.141087674
2.472494499,-0.11514457
2.474494899,-0.142182869
2.476495299,-0.147891833
2.478495699,-0.136340973
2.480496099,-0.129784319
2.482496499,-0.1640471
2.484496899,-0.112290471
2.486497299,-0.183842062
2.4884977,-0.259855274
2.4904981,-0.177462517
2.4924985,-0.186700015
2.4944989,-0.160613582
2.4964993,-0.17273923
2.4984997,-0.212674685
2.5005001,-0.182802474
2.5025005,-0.187522384
2.5045009,-0.336734088
2.5065013,-0.227174274
2.5085017,-0.334413769
2.5105021,-0.241983499
2.512502501,-0.273071728
2.514502901,-0.350252703
2.516503301,-0.202613984
2.518503701,-0.199623804
2.520504101,-0.320799326
2.522504501,-0.25377887
2.524504901,-0.297059027
2.526505301,-0.279968081
2.528505701,-0.229049003
2.530506101,-0.347094211
2.532506501,-0.23550985
2.534506901,-0.28251869
2.536507301,-0.284642278
2.538507702,-0.281396871
2.540508102,-0.309987361
2.542508502,-0.34515369
2.544508902,-0.260496424
2.546509302,-0.302819306
2.548509702,-0.224043273
2.550510102,-0.294676403
2.552510502,-0.274345534
2.554510902,-0.301294257
2.556511302,-0.218521439
2.558511702,-0.274915895
2.560512102,-0.209033015
2.562512503,-0.343656635
2.564512903,-0.23256926
2.566513303,-0.183115573
2.568513703,-0.198384393
2.570514103,-0.291240578
2.572514503,-0.151583591
2.574514903,-0.283201593
2.576515303,-0.245151675
2.578515703,-0.146399303
2.580516103,-0.219421016
2.582516503,-0.123781398
2.584516903,-0.141066089
2.586517303,-0.166790257
2.588517704,-0.239807272
2.590518104,-0.168266514
2.592518504,-0.21987603
2.594518904,-0.149228449
2.596519304,-0.11425463
2.598519704,-0.183867173
2.600520104,-0.132223197
2.602520504,-0.141975901
2.604520904,-0.079899227
2.606521304,-0.034535118
2.608521704,-0.010849325
2.610522104,-0.13013417
2.612522505,0.050379365
2.614522905,0.056176904
2.616523305,-0.097485496
2.618523705,-0.036597984
2.620524105,-0.051605807
2.622524505,-0.038264909
2.624524905,-0.018495187
2.626525305,0.001340221
2.628525705,0.002417837
2.630526105,0.018859757
2.632526505,0.075339268
2.634526905,0.052629086
2.636527305,0.060387016
2.638527706,0.069732685
2.640528106,0.022722545
2.642528506,0.030810004
2.644528906,0.020168338
2.646529306,0.061648382
2.648529706,0.17166349
2.650530106,0.176364021
2.652530506,0.085657667
2.654530906,0.093728182
2.656531306,0.039450078
2.658531706,0.006857149
2.660532106,-0.007187316
2.662532507,0.039640831
2.664532907,0.125873374
2.666533307,0.151371021
2.668533707,0.140280069
2.670534107,0.031043587
2.672534507,0.074047745
2.674534907,0.088777889
2.676535307,0.105509714
2.678535707,0.094060023
2.680536107,0.098264921
2.682536507,0.051712378
2.684536907,0.065676739
2.686537307,0.148706941
2.688537708,0.064653
2.690538108,0.072106308
2.692538508,0.002623288
2.694538908,0.059636518
2.696539308,0.149932413
2.698539708,-0.009354965
2.700540108,0.029438549
2.702540508,-0.003376558
2.704540908,0.06227041
2.706541308,0.100443296
2.708541708,-0.000509718
2.710542108,0.105524117
2.712542509,-0.012585537
2.714542909,-0.03717342
2.716543309,-0.07747004
2.718543709,0.095025558
2.720544109,0.05643349
2.722544509,-0.004187262
2.724544909,0.06706109
2.726545309,0.078077812
2.728545709,0.012435539
2.730546109,0.003885814
2.732546509,0.089201937
2.734546909,0.006720753
2.736547309,0.084665411
2.73854771,0.026325014
2.74054811,0.069012882
2.74254851,0.05270513
2.74454891,-0.032746886
2.74654931,0.059972451
2.74854971,0.010767874
2.75055011,0.029484596
2.75255051,0.071334563
2.75455091,0.085490409
2.75655131,0.023725305
2.75855171,0.061085165
2.76055211,0.039011696
2.762552511,-0.01991175
2.764552911,0.097874581
2.766553311,0.131285571
2.768553711,0.040400248
2.770554111,0.079710382
2.772554511,0.138778779
2.774554911,0.142644767
2.776555311,0.10707287
2.778555711,0.168931942
2.780556111,0.073044662
2.782556511,0.12183494
2.784556911,0.1519948
2.786557311,0.164855608
2.788557712,0.189051894
2.790558112,0.134066376
2.792558512,0.214001179
2.794558912,0.168626035
2.796559312,0.162825095
2.798559712,0.081838593
2.800560112,0.250787347
2.802560512,0.084494519
2.804560912,0.19204607
2.806561312,0.143654499
2.808561712,0.184474054
2.810562112,0.227616437
2.812562513,0.250603136
2.814562913,0.222932986
2.816563313,0.238134989
2.818563713,0.249860054
2.820564113,0.306597339
2.822564513,0.294124542
2.824564913,0.169251666
2.826565313,0.25846158
2.828565713,0.322630991
2.830566113,0.303093403
2.832566513,0.346856178
2.834566913,0.265757923
2.836567313,0.272712533
2.838567714,0.323367168
2.840568114,0.300004192
2.842568514,0.291455533
2.844568914,0.340708422
2.846569314,0.298483952
2.848569714,0.276646392
2.850570114,0.342204557
2.852570514,0.30643966
2.854570914,0.283620626
2.856571314,0.271543029
2.858571714,0.329080486
2.860572114,0.255121555
2.862572515,0.271602516
2.864572915,0.245884779
2.866573315,0.266711268
2.868573715,0.31324586
2.870574115,0.226485729
2.872574515,0.266107455
2.874574915,0.320638556
2.876575315,0.229600334
2.878575715,0.21714665
2.880576115,0.272002682
2.882576515,0.207123354
2.884576915,0.196211047
2.886577315,0.245361414
2.888577716,0.296721554
2.890578116,0.292914567
2.892578516,0.169991121
2.894578916,0.164558549
2.896579316,0.225679281
2.898579716,0.111149725
2.900580116,0.2493101
2.902580516,0.148242237
2.904580916,0.132274727
2.906581316,0.102844981
2.908581716,0.094995705
2.910582116,0.034235561
2.912582517,0.155926354
2.914582917,0.139674822
2.916583317,0.054951001
2.918583717,0.058427211
2.920584117,0.09383285
2.922584517,0.05442288
2.924584917,0.048751483
2.926585317,0.101626109
2.928585717,0.028772731
2.930586117,0.025219638
2.932586517,-0.028179133
2.934586917,0.030633007
2.936587317,0.06466503
2.938587718,0.036697803
2.940588118,0.070534071
2.942588518,-0.025226078
2.944588918,0.078578723
2.946589318,0.014967872
2.948589718,0.049258047
2.950590118,-0.071580003
2.952590518,0.127686544
2.954590918,0.057467321
2.956591318,-0.059855771
2.958591718,-0.080822138
2.960592118,-0.028058685
2.962592519,-0.037842916
2.964592919,-0.023225434
2.966593319,-6.76E-05
2.968593719,0.052539574
2.970594119,-0.032361981
2.972594519,-0.005773532
2.974594919,0.022474583
2.976595319,-0.022522168
2.978595719,-0.038099835
2.980596119,0.011638275
2.982596519,0.083671767
2.984596919,-0.042239862
2.986597319,-0.103374825
2.98859772,-0.006881176
2.99059812,0.038107506
2.99259852,0.037202869
2.99459892,-0.057853471
2.99659932,-0.01313934
2.99859972,-0.028080388
3.00060012,0.496047425
3.00260052,0.552801376
3.00460092,0.469931125
3.00660132,0.550112599
3.00860172,0.457179874
3.01060212,0.446612412
3.012602521,0.494858285
3.014602921,0.481857213
3.016603321,0.521249661
3.018603721,0.441842271
3.020604121,0.516385154
3.022604521,0.449508083
3.024604921,0.495647971
3.026605321,0.415507902
3.028605721,0.46556411
3.030606121,0.448179001
3.032606521,0.417537477
3.034606921,0.464383083
3.036607321,0.371999615
3.038607722,0.320466843
3.040608122,0.437486943
3.042608522,0.336062661
3.044608922,0.371921282
3.046609322,0.230976412
3.048609722,0.259136827
3.050610122,0.236787975
3.052610522,0.311992967
3.054610922,0.292945888
3.056611322,0.170803036
3.058611722,0.248720781
3.060612122,0.219037832
3.062612523,0.270230567
3.064612923,0.218068864
3.066613323,0.137024714
3.068613723,0.182730036
3.070614123,0.089627114
3.072614523,0.087317981
3.074614923,0.141628859
3.076615323,0.058692231
3.078615723,-0.000436256
3.080616123,-0.025348821
3.082616523,0.060109155
3.084616923,0.06743703
3.086617323,0.012094724
3.088617724,-0.067866906
3.090618124,-0.040965456
3.092618524,0.004112385
3.094618924,-0.119722293
3.096619324,-0.12379342
3.098619724,-0.151563591
3.100620124,-0.132841279
3.102620524,-0.079839118
3.104620924,-0.14376304
3.106621324,-0.027136382
3.108621724,-0.191410191
3.110622124,-0.099956603
3.112622525,-0.20465822
3.114622925,-0.156840805
3.116623325,-0.195121496
3.118623725,-0.225824457
3.120624125,-0.234717856
3.122624525,-0.157377869
3.124624925,-0.220676945
3.126625325,-0.209469992
3.128625725,-0.279093858
3.130626125,-0.280973156
3.132626525,-0.271610972
3.134626925,-0.342805587
3.136627325,-0.23470805
3.138627726,-0.273946645
3.140628126,-0.377065317
3.142628526,-0.260611701
3.144628926,-0.292887556
3.146629326,-0.365152448
3.148629726,-0.246089862
3.150630126,-0.217118186
3.152630526,-0.335679739
3.154630926,-0.324513041
3.156631326,-0.274674012
3.158631726,-0.328609732
3.160632126,-0.288386075
3.162632527,-0.285333123
3.164632927,-0.30066806
3.166633327,-0.317482304
3.168633727,-0.291256804
3.170634127,-0.265481487
3.172634527,-0.316111232
3.174634927,-0.283258141
3.176635327,-0.334439323
3.178635727,-0.331511403
3.180636127,-0.242569433
3.182636527,-0.203512548
3.184636927,-0.246175112
3.186637327,-0.305059981
3.188637728,-0.230082593
3.190638128,-0.17463016
3.192638528,-0.150642242
3.194638928,-0.184051247
3.196639328,-0.22925206
3.198639728,-0.185798084
3.200640128,-0.153220745
3.202640528,-0.175483515
3.204640928,-0.191660942
3.206641328,-0.171581466
3.208641728,-0.1214816
3.210642128,-0.162239918
3.212642529,-0.161390379
3.214642929,-0.192960936
3.216643329,-0.195027769
3.218643729,-0.187510196
3.220644129,0.011973895
3.222644529,-0.132318527
3.224644929,-0.125394377
3.226645329,-0.051784101
3.228645729,-0.08952905
3.230646129,-0.107144748
3.232646529,-0.111966405
3.234646929,-0.054156781
3.236647329,-0.070319518
3.23864773,-0.032881699
3.24064813,-0.066303464
3.24264853,-0.041808641
3.24464893,-0.020667071
3.24664933,0.005514284
3.24864973,-0.032813742
3.25065013,-0.063693713
3.25265053,-0.10160402
3.25465093,0.039313037
3.25665133,0.005191514
3.25865173,0.025376535
3.26065213,-0.095593566
3.262652531,-0.003680228
3.264652931,-0.025639759
3.266653331,-0.056418201
3.268653731,0.075081273
3.270654131,0.004459741
3.272654531,-0.014744208
3.274654931,0.035327517
3.276655331,-0.014454414
3.278655731,-0.060418586
3.280656131,0.029704333
3.282656531,-0.040727552
3.284656931,-0.091932206
3.286657331,-0.100152016
3.288657732,-0.022887233
3.290658132,-0.077574108
3.292658532,-0.076194248
3.294658932,0.024755098
3.296659332,-0.094976054
3.298659732,-0.055871548
3.300660132,-0.158302034
3.302660532,-0.002723112
3.304660932,-0.052051894
3.306661332,0.006797945
3.308661732,-0.072975774
3.310662132,0.00785172
3.312662533,-0.060175267
3.314662933,-0.116092488
3.316663333,-0.149588712
3.318663733,-0.072315214
3.320664133,-0.065974445
3.322664533,-0.222391431
3.324664933,0.000135302
3.326665333,-0.052170172
3.328665733,-0.136284696
3.330666133,-0.059688809
3.332666533,-0.144925813
3.334666933,-0.116209891
3.336667333,-0.148001804
3.338667734,-0.085069723
3.340668134,-0.056412899
3.342668534,-0.079813638
3.344668934,-0.114943348
3.346669334,-0.060770482
3.348669734,-0.122621956
3.350670134,-0.030619383
3.352670534,-0.083648683
3.354670934,-0.037051279
3.356671334,-0.001302949
3.358671734,-0.066228556
3.360672134,-0.072601036
3.362672535,-0.075449237
3.364672935,-0.001996352
3.366673335,0.001612472
3.368673735,-0.005086809
3.370674135,-0.022522602
3.372674535,-0.022214134
3.374674935,-0.07114729
3.376675335,0.059052069
3.378675735,0.011496046
3.380676135,0.042922536
3.382676535,0.070083431
3.384676935,0.020266907
3.386677335,0.005704254
3.388677736,0.030136572
3.390678136,0.032221218
3.392678536,0.129700471
3.394678936,0.126380733
3.396679336,0.131800141
3.398679736,0.089494445
3.400680136,0.149817427
3.402680536,0.132229639
3.404680936,0.065737957
3.406681336,0.141459312
3.408681736,0.218831613
3.410682136,0.127594187
3.412682537,0.23080114
3.414682937,0.235029941
3.416683337,0.223603247
3.418683737,0.148529852
3.420684137,0.206831699
3.422684537,0.233116142
3.424684937,0.269084699
3.426685337,0.188590578
3.428685737,0.284271835
3.430686137,0.239989242
3.432686537,0.211496662
3.434686937,0.298780965
3.436687337,0.235928191
3.438687738,0.234450082
3.440688138,0.250280447
3.442688538,0.239714816
3.444688938,0.289336394
3.446689338,0.231617525
3.448689738,0.211417573
3.450690138,0.233870886
3.452690538,0.260660446
3.454690938,0.2957344
3.456691338,0.340057015
3.458691738,0.251965268
3.460692138,0.264851948
3.462692539,0.272503237
3.464692939,0.281156268
3.466693339,0.249385363
3.468693739,0.251211137
3.470694139,0.242077411
3.472694539,0.342269736
3.474694939,0.245400222
3.476695339,0.247048872
3.478695739,0.275861681
3.480696139,0.261485233
3.482696539,0.23333624
3.484696939,0.260600674
3.486697339,0.323476149
3.48869774,0.193976037
3.49069814,0.238487581
3.49269854,0.194422332
3.49469894,0.214155919
3.49669934,0.199896379
3.49869974,0.156956141
3.50070014,0.12425084
3.50270054,0.230403117
3.50470094,0.237574016
3.50670134,0.170764831
3.50870174,0.163681857
3.51070214,0.175624229
3.512702541,0.1610249
3.514702941,0.08370966
3.516703341,0.119643973
3.518703741,0.169652125
3.520704141,0.103041878
3.522704541,0.193549647
3.524704941,0.106690589
3.526705341,0.11841191
3.528705741,0.156069633
3.530706141,0.116472164
3.532706541,0.061776347
3.534706941,0.095049622
3.536707341,0.048470447
3.538707742,-0.022417582
3.540708142,0.038696008
3.542708542,0.098689086
3.544708942,0.079257838
3.546709342,0.115760113
3.548709742,0.152982413
3.550710142,0.092825479
3.552710542,0.01846887
3.554710942,-0.01836245
3.556711342,0.170297666
3.558711742,0.095797415
3.560712142,0.09814474
3.562712543,0.018289893
3.564712943,0.204718527
3.566713343,0.087331514
3.568713743,0.046751298
3.570714143,0.014016431
3.572714543,0.124738904
3.574714943,0.106559168
3.576715343,0.062120558
3.578715743,0.094018059
3.580716143,0.099532118
3.582716543,0.134894362
3.584716943,0.081741955
3.586717343,0.084000253
3.588717744,0.142332544
3.590718144,0.026920427
3.592718544,0.042551575
3.594718944,0.038539251
3.596719344,-0.052339528
3.598719744,0.157270915
3.600720144,0.027856851
3.602720544,0.100095768
3.604720944,0.120623539
3.606721344,0.158881306
3.608721744,0.067634808
3.610722144,0.122058832
3.612722545,0.122768751
3.614722945,0.221601108
3.616723345,0.162105088
3.618723745,0.232361647
3.620724145,0.177309934
3.622724545,0.162578595
3.624724945,0.179179371
3.626725345,0.075249028
3.628725745,0.150585033
3.630726145,0.084166063
3.632726545,0.103084732
3.634726945,0.180652031
3.636727345,0.156266108
3.638727746,0.179909246
3.640728146,0.135890491
3.642728546,0.147224167
3.644728946,0.189570515
3.646729346,0.160453927
3.648729746,0.091155539
3.650730146,0.12314026
3.652730546,0.156599013
3.654730946,0.12590322
3.656731346,0.004652491
3.658731746,0.104236406
3.660732146,0.133798771
3.662732547,0.079016816
3.664732947,0.078035964
3.666733347,0.060995034
3.668733747,0.04455408
3.670734147,-0.02752671
3.672734547,0.122547454
3.674734947,-0.064457556
3.676735347,-0.000216974
3.678735747,0.001188471
3.680736147,-0.026844752
3.682736547,0.083635817
3.684736947,-0.014554318
3.686737347,-0.052317383
3.688737748,0.033540562
3.690738148,0.03753867
3.692738548,0.015958285
3.694738948,-0.067785655
3.696739348,0.016491405
3.698739748,-0.075209573
3.700740148,-0.020856933
3.702740548,-0.12446477
3.704740948,-0.139132163
3.706741348,-0.167262557
3.708741748,-0.167074251
3.710742148,-0.07292124
3.712742549,-0.086067982
3.714742949,-0.17657101
3.716743349,-0.156775603
3.718743749,-0.166872435
3.720744149,-0.14545161
3.722744549,-0.169707182
3.724744949,-0.243579105
3.726745349,-0.278453663
3.728745749,-0.116150721
3.730746149,-0.154475961
3.732746549,-0.174614355
3.734746949,-0.250589711
3.736747349,-0.253361194
3.73874775,-0.23057159
3.74074815,-0.179678627
3.74274855,-0.222404214
3.74474895,-0.179769506
3.74674935,-0.201556116
3.74874975,-0.281179568
3.75075015,-0.240638008
3.75275055,-0.218573976
3.75475095,-0.221720092
3.75675135,-0.297439449
3.75875175,-0.267538963
3.76075215,-0.238967534
3.762752551,-0.333197729
3.764752951,-0.199563627
3.766753351,-0.132194441
3.768753751,-0.230668137
3.770754151,-0.163002566
3.772754551,-0.16433139
3.774754951,-0.187826528
3.776755351,-0.136995194
3.778755751,-0.292643423
3.780756151,-0.263072629
3.782756551,-0.19195227
3.784756951,-0.240670987
3.786757351,-0.309393957
3.788757752,-0.239895558
3.790758152,-0.247738954
3.792758552,-0.239157353
3.794758952,-0.126400224
3.796759352,-0.192658451
3.798759752,-0.22159937
3.800760152,-0.257162994
3.802760552,-0.162192617
3.804760952,-0.064788522
3.806761352,-0.125936986
3.808761752,-0.136179717
3.810762152,-0.205462611
3.812762553,-0.171513925
3.814762953,-0.091790669
3.816763353,-0.171108644
3.818763753,-0.126029695
3.820764153,-0.104200727
3.822764553,-0.131474028
3.824764953,-0.019432001
3.826765353,-0.181305186
3.828765753,0.007929891
3.830766153,-0.079973219
3.832766553,-0.121525936
3.834766953,-0.055432885
3.836767353,-0.138880336
3.838767754,-0.09082093
3.840768154,-0.007798241
3.842768554,-0.097489957
3.844768954,-0.065839368
3.846769354,-0.00372931
3.848769754,-0.095211268
3.850770154,-0.113021175
3.852770554,-0.06720523
3.854770954,-0.231827608
3.856771354,-0.124673048
3.858771754,-0.153189271
3.860772154,-0.047204519
3.862772555,-0.047265664
3.864772955,-0.07090052
3.866773355,-0.133545177
3.868773755,-0.187624531
3.870774155,-0.125136933
3.872774555,-0.107508609
3.874774955,-0.11408756
3.876775355,-0.134708514
3.878775755,-0.197727932
3.880776155,-0.126774475
3.882776555,-0.09825418
3.884776955,-0.134653984
3.886777355,-0.117816249
3.888777756,-0.104203073
3.890778156,-0.146177616
3.892778556,-0.126139506
3.894778956,-0.162444413
3.896779356,-0.127287198
3.898779756,-0.261692911
3.900780156,-0.125484057
3.902780556,-0.296168107
3.904780956,-0.122926389
3.906781356,-0.114027956
3.908781756,-0.127110675
3.910782156,-0.174981494
3.912782557,-0.191716451
3.914782957,-0.194307409
3.916783357,-0.181515646
3.918783757,-0.249373661
3.920784157,-0.174600678
3.922784557,-0.231063767
3.924784957,-0.219834299
3.926785357,-0.259523833
3.928785757,-0.202333775
3.930786157,-0.189213467
3.932786557,-0.273665271
3.934786957,-0.234122266
3.936787357,-0.151267045
3.938787758,-0.1835964
3.940788158,-0.19956314
3.942788558,-0.144687101
3.944788958,-0.197703959
3.946789358,-0.173710124
3.948789758,-0.184143067
3.950790158,-0.283829507
3.952790558,-0.232451901
3.954790958,-0.241565342
3.956791358,-0.195353341
3.958791758,-0.13632039
3.960792158,-0.242108488
3.962792559,-0.115116388
3.964792959,-0.142626298
3.966793359,-0.19667925
3.968793759,-0.190471794
3.970794159,-0.106025976
3.972794559,-0.115024429
3.974794959,0.019838924
3.976795359,-0.122211625
3.978795759,-0.051302286
3.980796159,-0.098385669
3.982796559,-0.030336682
3.984796959,-0.075473116
3.986797359,-0.001097482
3.98879776,-0.01157278
3.99079816,0.005788381
3.99279856,-0.044399335
3.99479896,0.004227077
3.99679936,0.027876996
3.99879976,-0.044471267
4.00080016,0.508389829
4.00280056,0.463408602
4.00480096,0.486512971
4.00680136,0.530500619
4.00880176,0.557114285
4.01080216,0.53272269
4.012802561,0.553574372
4.014802961,0.562586826
4.016803361,0.484429115
4.018803761,0.550101807
4.020804161,0.56605136
4.022804561,0.537142333
4.024804961,0.559418625
4.026805361,0.566076397
4.028805761,0.589085823
4.030806161,0.536189838
4.032806561,0.506011751
4.034806961,0.443519867
4.036807361,0.503582278
4.038807762,0.568073775
4.040808162,0.534557373
4.042808562,0.561069054
4.044808962,0.525751688
4.046809362,0.532266086
4.048809762,0.654711021
4.050810162,0.468489677
4.052810562,0.482159357
4.054810962,0.47187702
4.056811362,0.553723366
4.058811762,0.550956482
4.060812162,0.448487823
4.062812563,0.472507998
4.064812963,0.446143037
4.066813363,0.460309919
4.068813763,0.350136842
4.070814163,0.433379197
4.072814563,0.347058378
4.074814963,0.382468098
4.076815363,0.392488641
4.078815763,0.349926469
4.080816163,0.365814396
4.082816563,0.292295047
4.084816963,0.266919859
4.086817363,0.310958543
4.088817764,0.271902309
4.090818164,0.265925695
4.092818564,0.336584927
4.094818964,0.262393431
4.096819364,0.244734882
4.098819764,0.274291165
4.100820164,0.160535761
4.102820564,0.234802965
4.104820964,0.211251286
4.106821364,0.137101435
4.108821764,0.255035455
4.110822164,0.244272555
4.112822565,0.228270788
4.114822965,0.204660506
4.116823365,0.136213552
4.118823765,0.20146305
4.120824165,0.198231605
4.122824565,0.094623277
4.124824965,0.213791501
4.126825365,0.190879176
4.128825765,0.134117036
4.130826165,0.130500598
4.132826565,0.178030517
4.134826965,0.105319393
4.136827365,0.163336782
4.138827766,0.102864444
4.140828166,0.135407965
4.142828566,0.00590684
4.144828966,-0.01105216
4.146829366,0.108923523
4.148829766,0.182970196
4.150830166,0.058266183
4.152830566,0.101999639
4.154830966,0.156643804
4.156831366,0.02050393
4.158831766,0.095183778
4.160832166,0.139439383
4.162832567,0.169274204
4.164832967,0.207199092
4.166833367,0.164481901
4.168833767,0.076132549
4.170834167,0.154564919
4.172834567,0.097519681
4.174834967,0.155033067
4.176835367,0.222707751
4.178835767,0.14209237
4.180836167,0.163177849
4.182836567,0.122790186
4.184836967,0.099301388
4.186837367,0.064801619
4.188837768,0.188598041
4.190838168,0.176317968
4.192838568,0.149738401
4.194838968,0.140637711
4.196839368,0.187439534
4.198839768,0.134399137
4.200840168,0.248627533
4.202840568,0.131993803
4.204840968,0.187326041
4.206841368,0.21177801
4.208841768,0.232719351
4.210842168,0.219385134
4.212842569,0.250603656
4.214842969,0.208948814
4.216843369,0.246886176
4.218843769,0.166078645
4.220844169,0.211158632
4.222844569,0.255646713
4.224844969,0.245141718
4.226845369,0.188859766
4.228845769,0.151102318
4.230846169,0.320940115
4.232846569,0.271980299
4.234846969,0.259466335
4.236847369,0.212444802
4.23884777,0.230669756
4.24084817,0.238623571
4.24284857,0.204024732
4.24484897,0.335035164
4.24684937,0.273297423
4.24884977,0.192690122
4.25085017,0.246070634
4.25285057,0.220691999
4.25485097,0.192028846
4.25685137,0.168521284
4.25885177,0.302008664
4.26085217,0.216650363
4.262852571,0.337368421
4.264852971,0.176326427
4.266853371,0.247929148
4.268853771,0.171964375
4.270854171,0.209452471
4.272854571,0.106145693
4.274854971,0.160947363
4.276855371,0.170545014
4.278855771,0.13614504
4.280856171,0.16137229
4.282856571,0.155845058
4.284856971,0.236404171
4.286857371,0.120005684
4.288857772,0.050629122
4.290858172,0.123913825
4.292858572,0.155778161
4.294858972,0.038107043
4.296859372,0.0618055
4.298859772,0.029164146
4.300860172,0.061429991
4.302860572,0.005356655
4.304860972,0.1598205
4.306861372,0.04997413
4.308861772,0.003388784
4.310862172,-0.011110981
4.312862573,0.021475444
4.314862973,-0.014124396
4.316863373,-0.076793436
4.318863773,-0.034032019
4.320864173,0.019932334
4.322864573,-0.168245632
4.324864973,-0.097443098
4.326865373,-0.09885046
4.328865773,-0.089955828
4.330866173,-0.000559559
4.332866573,0.010950147
4.334866973,-0.132062574
4.336867373,-0.078136119
4.338867774,-0.149717583
4.340868174,-0.157026872
4.342868574,-0.19279744
4.344868974,-0.180872829
4.346869374,-0.07687493
4.348869774,-0.175540647
4.350870174,-0.171121407
4.352870574,-0.095646912
4.354870974,-0.228951076
4.356871374,-0.098971535
4.358871774,-0.095229403
4.360872174,-0.19168295
4.362872575,-0.180062688
4.364872975,-0.127994729
4.366873375,-0.162290827
4.368873775,-0.12170423
4.370874175,-0.165389193
4.372874575,-0.135608957
4.374874975,-0.111127131
4.376875375,-0.15094763
4.378875775,-0.173803016
4.380876175,-0.208164641
4.382876575,-0.146396268
4.384876975,-0.154945479
4.386877375,-0.089696211
4.388877776,-0.132715895
4.390878176,-0.060855671
4.392878576,-0.134551759
4.394878976,-0.175044081
4.396879376,-0.169646576
4.398879776,-0.119703664
4.400880176,-0.088960554
4.402880576,-0.156028536
4.404880976,-0.104410899
4.406881376,-0.207177703
4.408881776,-0.1234229
4.410882176,-0.095651062
4.412882577,-0.073169122
4.414882977,-0.019065918
4.416883377,-0.177925762
4.418883777,-0.088399808
4.420884177,-0.108899012
4.422884577,-0.034285455
4.424884977,-0.08279979
4.426885377,-0.103035556
4.428885777,-0.117657855
4.430886177,-0.07522159
4.432886577,-0.07032387
4.434886977,-0.022874769
4.436887377,-0.079162881
4.438887778,-0.107919038
4.440888178,-0.047057497
4.442888578,-0.092782064
4.444888978,-0.096923268
4.446889378,-0.108999632
4.448889778,-0.139448681
4.450890178,-0.080716988
4.452890578,-0.062586608
4.454890978,0.016617876
4.456891378,-0.055360824
4.458891778,-0.097054317
4.460892178,-0.166924837
4.462892579,-0.09092605
4.464892979,-0.12083964
4.466893379,-0.106792124
4.468893779,-0.076575059
4.470894179,-0.094469906
4.472894579,-0.145545172
4.474894979,-0.103866006
4.476895379,-0.041630247
4.478895779,-0.106559952
4.480896179,-0.139663925
4.482896579,-0.185499203
4.484896979,-0.090635901
4.486897379,-0.146396294
4.48889778,-0.057563845
4.49089818,-0.101821527
4.49289858,-0.147921318
4.49489898,-0.261863477
4.49689938,-0.131579596
4.49889978,-0.189267199
4.50090018,-0.179380552
4.50290058,-0.113263892
4.50490098,-0.23499795
4.50690138,-0.249957367
4.50890178,-0.244143131
4.51090218,-0.261612583
4.512902581,-0.25821769
4.514902981,-0.184582305
4.516903381,-0.177532632
4.518903781,-0.261316286
4.520904181,-0.304685393
4.522904581,-0.320400849
4.524904981,-0.292201798
4.526905381,-0.216665147
4.528905781,-0.268969501
4.530906181,-0.334800344
4.532906581,-0.305793526
4.534906981,-0.337347786
4.536907381,-0.232864733
4.538907782,-0.298526572
4.540908182,-0.292640348
4.542908582,-0.292337274
4.544908982,-0.402451935
4.546909382,-0.215334919
4.548909782,-0.313407081
4.550910182,-0.209941549
4.552910582,-0.228117584
4.554910982,-0.231702606
4.556911382,-0.283731826
4.558911782,-0.328306266
4.560912182,-0.264611955
4.562912583,-0.213564515
4.564912983,-0.213972849
4.566913383,-0.238920023
4.568913783,-0.28943754
4.570914183,-0.289924533
4.572914583,-0.285402268
4.574914983,-0.262091753
4.576915383,-0.180696879
4.578915783,-0.148865634
4.580916183,-0.185376229
4.582916583,-0.148242818
4.584916983,-0.233537515
4.586917383,-0.183634085
4.588917784,-0.137188101
4.590918184,-0.123954274
4.592918584,-0.128154436
4.594918984,-0.12628525
4.596919384,-0.166338883
4.598919784,-0.197071646
4.600920184,-0.098871891
4.602920584,-0.159466413
4.604920984,-0.030521995
4.606921384,-0.187397072
4.608921784,-0.145361302
4.610922184,-0.09471695
4.612922585,-0.040639461
4.614922985,-0.068726526
4.616923385,0.028093921
4.618923785,-0.081067075
4.620924185,0.041433835
4.622924585,-0.028487072
4.624924985,0.013773061
4.626925385,0.002355321
4.628925785,-0.071498829
4.630926185,0.031261492
4.632926585,-0.027833305
4.634926985,0.097698482
4.636927385,0.042319544
4.638927786,0.014872034
4.640928186,0.029406912
4.642928586,0.079425446
4.644928986,0.041192932
4.646929386,0.06971638
4.648929786,0.031141982
4.650930186,0.093962107
4.652930586,0.182259678
4.654930986,0.137567349
4.656931386,0.068565624
4.658931786,0.085079398
4.660932186,0.105201987
4.662932587,0.151302169
4.664932987,0.180341305
4.666933387,0.096104589
4.668933787,0.134998621
4.670934187,0.134489904
4.672934587,0.065707443
4.674934987,0.042633905
4.676935387,0.157417567
4.678935787,0.080414413
4.680936187,0.038355124
4.682936587,0.132772491
4.684936987,0.158649488
4.686937387,0.041027525
4.688937788,0.062607079
4.690938188,0.008140401
4.692938588,0.117016446
4.694938988,0.160172854
4.696939388,0.082751506
4.698939788,-0.007066493
4.700940188,-0.025207543
4.702940588,0.069528869
4.704940988,-0.015951219
4.706941388,0.044867236
4.708941788,0.029310349
4.710942188,-0.008342629
4.712942589,-0.026214829
4.714942989,0.034839203
4.716943389,0.08080884
4.718943789,-0.058078387
4.720944189,0.071577935
4.722944589,0.094069827
4.724944989,0.02071535
4.726945389,0.014689901
4.728945789,0.041753631
4.730946189,-0.034636901
4.732946589,0.032989177
4.734946989,0.023721769
4.736947389,0.095611186
4.73894779,0.05139554
4.74094819,-0.022713359
4.74294859,-0.010521011
4.74494899,0.053058432
4.74694939,0.005925263
4.74894979,0.059657916
4.75095019,0.040205179
4.75295059,-0.040454246
4.75495099,0.023098578
4.75695139,0.093006539
4.75895179,0.047024339
4.76095219,0.074026899
4.762952591,0.044146132
4.764952991,0.027359071
4.766953391,0.201054609
4.768953791,0.155521885
4.770954191,0.087135317
4.772954591,0.099265574
4.774954991,0.061079452
4.776955391,0.12332556
4.778955791,0.036904553
4.780956191,0.189562296
4.782956591,0.055638362
4.784956991,0.15370951
4.786957391,0.09489615
4.788957792,0.145799177
4.790958192,0.150458181
4.792958592,0.177388452
4.794958992,0.156647534
4.796959392,0.220366901
4.798959792,0.219242837
4.800960192,0.220966509
4.802960592,0.281993101
4.804960992,0.196941226
4.806961392,0.216423968
4.808961792,0.14550709
4.810962192,0.26908046
4.812962593,0.234170361
4.814962993,0.208267843
4.816963393,0.337877555
4.818963793,0.20884428
4.820964193,0.297208484
4.822964593,0.244547279
4.824964993,0.244772626
4.826965393,0.27886969
4.828965793,0.326692988
4.830966193,0.309465574
4.832966593,0.260645055
4.834966993,0.233897584
4.836967393,0.271339843
4.838967794,0.279720899
4.840968194,0.231980459
4.842968594,0.380256255
4.844968994,0.261111277
4.846969394,0.344451025
4.848969794,0.278542853
4.850970194,0.388786519
4.852970594,0.256093101
4.854970994,0.299415477
4.856971394,0.386415154
4.858971794,0.22708442
4.860972194,0.262285631
4.862972595,0.260597224
4.864972995,0.213439646
4.866973395,0.265373774
4.868973795,0.232635666
4.870974195,0.261062762
4.872974595,0.352008131
4.874974995,0.291778256
4.876975395,0.357646116
4.878975795,0.278023094
4.880976195,0.153157112
4.882976595,0.221282433
4.884976995,0.295673621
4.886977395,0.197206004
4.888977796,0.144154425
4.890978196,0.227095615
4.892978596,0.179833253
4.894978996,0.183948948
4.896979396,0.141949885
4.898979796,0.104000779
4.900980196,0.24079281
4.902980596,0.094904505
4.904980996,0.138278137
4.906981396,0.161736155
4.908981796,0.190064962
4.910982196,0.148160175
4.912982597,0.136452283
4.914982997,0.133054189
4.916983397,0.007548461
4.918983797,0.083052231
4.920984197,0.096303686
4.922984597,0.107770841
4.924984997,0.022730437
4.926985397,0.010005595
4.928985797,-0.035343317
4.930986197,0.042034887
4.932986597,-0.03871582
4.934986997,-0.009826547
4.936987397,-0.02813785
4.938987798,-0.041781585
4.940988198,0.026107275
4.942988598,0.010371019
4.944988998,0.021239286
4.946989398,-0.046248198
4.948989798,-0.005459044
4.950990198,-0.020148465
4.952990598,0.024937775
4.954990998,0.047498635
4.956991398,0.068822901
4.958991798,-0.044471295
4.960992198,0.007746262
4.962992599,-0.00733787
4.964992999,0.021612508
4.966993399,0.072486132
4.968993799,-0.005866102
4.970994199,-0.06646651
4.972994599,-0.027017189
4.974994999,0.00342162
4.976995399,0.012095134
4.978995799,-0.001500309
4.980996199,-0.0321009
4.982996599,0.008538384
4.984996999,0.001162004
4.986997399,0.007333731
4.9889978,0.048191377
4.9909982,0.015711491
4.9929986,-0.004965105
4.994999,-0.102352672
4.9969994,-0.057802131
4.9989998,0.00181185
5.0010002,0.532117473
5.0030006,0.476132252
5.005001,0.538556711
5.0070014,0.481144956
5.0090018,0.559506493
5.0110022,0.533027143
5.013002601,0.474052825
5.015003001,0.470121924
5.017003401,0.371650163
5.019003801,0.464638789
5.021004201,0.447055527
5.023004601,0.467311909
5.025005001,0.504814117
5.027005401,0.522514568
5.029005801,0.45921623
5.031006201,0.392967524
5.033006601,0.397123899
5.035007001,0.416569674
5.037007401,0.424072805
5.039007802,0.401790466
5.041008202,0.289002038
5.043008602,0.383539266
5.045009002,0.298459724
5.047009402,0.417080764
5.049009802,0.405128548
5.051010202,0.408078415
5.053010602,0.280386441
5.055011002,0.288908626
5.057011402,0.127822729
5.059011802,0.344159419
5.061012202,0.205919902
5.063012603,0.207473149
5.065013003,0.185721253
5.067013403,0.221504246
5.069013803,0.154339179
5.071014203,0.055844751
5.073014603,0.084633688
5.075015003,0.080369447
5.077015403,0.093835138
5.079015803,0.009809208
5.081016203,-0.022009227
5.083016603,0.046919848
5.085017003,0.05313861
5.087017403,-0.026483587
5.089017804,0.033392781
5.091018204,0.052309816
5.093018604,-0.144584267
5.095019004,-0.100886106
5.097019404,-0.047424603
5.099019804,-0.083896484
5.101020204,-0.091679014
5.103020604,-0.111287118
5.105021004,-0.108897842
5.107021404,-0.090492598
5.109021804,-0.206598473
5.111022204,-0.202806793
5.113022605,-0.184364218
5.115023005,-0.166174335
5.117023405,-0.228956905
5.119023805,-0.195509391
5.121024205,-0.233166352
5.123024605,-0.247360785
5.125025005,-0.235060577
5.127025405,-0.212217735
5.129025805,-0.24587535
5.131026205,-0.275345026
5.133026605,-0.235056599
5.135027005,-0.258848659
5.137027405,-0.234361082
5.139027806,-0.297909259
5.141028206,-0.299612209
5.143028606,-0.251752244
5.145029006,-0.313855227
5.147029406,-0.21473948
5.149029806,-0.218836621
5.151030206,-0.344853043
5.153030606,-0.286850036
5.155031006,-0.338984657
5.157031406,-0.32052983
5.159031806,-0.287347116
5.161032206,-0.275755369
5.163032607,-0.250023878
5.165033007,-0.370166612
5.167033407,-0.288207972
5.169033807,-0.340581931
5.171034207,-0.298493835
5.173034607,-0.321989885
5.175035007,-0.253986857
5.177035407,-0.269775805
5.179035807,-0.352100849
5.181036207,-0.238531128
5.183036607,-0.316257011
5.185037007,-0.201471076
5.187037407,-0.17410711
5.189037808,-0.211449156
5.191038208,-0.163124202
5.193038608,-0.1977387
5.195039008,-0.200567345
5.197039408,-0.255121669
5.199039808,-0.255647779
5.201040208,-0.089685178
5.203040608,-0.21591712
5.205041008,-0.195629536
5.207041408,-0.203092667
5.209041808,-0.161574067
5.211042208,-0.145457574
5.213042609,-0.059545536
5.215043009,-0.063604628
5.217043409,-0.131959097
5.219043809,-0.11137229
5.221044209,-0.146504832
5.223044609,-0.048337638
5.225045009,-0.11628363
5.227045409,-0.167679583
5.229045809,-0.103329019
5.231046209,-0.063170582
5.233046609,-0.043172084
5.235047009,-0.060484565
5.237047409,-0.04082677
5.23904781,-0.088944708
5.24104821,-0.028311112
5.24304861,-0.127313841
5.24504901,-0.106873009
5.24704941,-0.044229648
5.24904981,-0.063634829
5.25105021,-0.056935376
5.25305061,-0.108662207
5.25505101,-0.045147872
5.25705141,-0.040043195
5.25905181,-0.018345373
5.26105221,0.014026974
5.263052611,0.03194377
5.265053011,-0.100901155
5.267053411,-0.02483099
5.269053811,-0.061556807
5.271054211,0.035124438
5.273054611,-0.030700084
5.275055011,-0.033277064
5.277055411,-0.100465759
5.279055811,-0.1066133
5.281056211,-0.036334498
5.283056611,-0.103740929
5.285057011,-0.004610546
5.287057411,-0.11117613
5.289057812,0.028555514
5.291058212,-0.049526741
5.293058612,0.003131002
5.295059012,-0.112555195
5.297059412,-0.003462396
5.299059812,-0.089308538
5.301060212,0.019244908
5.303060612,-0.098947921
5.305061012,0.026043838
5.307061412,-0.069901963
5.309061812,-0.154600338
5.311062212,-0.005490885
5.313062613,-0.118228996
5.315063013,-0.068920399
5.317063413,-0.045393837
5.319063813,-0.088511639
5.321064213,-0.092355748
5.323064613,-0.01720566
5.325065013,-0.091392207
5.327065413,-0.128792814
5.329065813,-0.110301139
5.331066213,-0.045484187
5.333066613,-0.088292463
5.335067013,-0.062222893
5.337067413,-0.069066808
5.339067814,-0.058349944
5.341068214,-0.199176243
5.343068614,-0.143897945
5.345069014,-0.047770172
5.347069414,-0.054703816
5.349069814,-0.004501321
5.351070214,-0.058608733
5.353070614,-0.020745425
5.355071014,-0.103953869
5.357071414,-0.068694258
5.359071814,0.053104009
5.361072214,-0.049580247
5.363072615,-0.164387798
5.365073015,-0.008196506
5.367073415,-0.078910762
5.369073815,0.005897954
5.371074215,-0.074599893
5.373074615,-0.031567676
5.375075015,0.115339875
5.377075415,-0.038081689
5.379075815,0.121443803
5.381076215,0.001265233
5.383076615,0.059211277
5.385077015,0.055944655
5.387077415,0.04406381
5.389077816,0.071956898
5.391078216,0.08586001
5.393078616,0.054481156
5.395079016,0.121679712
5.397079416,0.103855509
5.399079816,0.07787399
5.401080216,0.022964289
5.403080616,0.083889939
5.405081016,0.032828002
5.407081416,0.234061232
5.409081816,0.172246188
5.411082216,0.124141968
5.413082617,0.142622591
5.415083017,0.248836112
5.417083417,0.197843747
5.419083817,0.184460193
5.421084217,0.208824962
5.423084617,0.209030428
5.425085017,0.189789263
5.427085417,0.205822086
5.429085817,0.179662914
5.431086217,0.287589123
5.433086617,0.245344504
5.435087017,0.213269054
5.437087417,0.327510635
5.439087818,0.314543118
5.441088218,0.257388372
5.443088618,0.285429408
5.445089018,0.23451276
5.447089418,0.265555981
5.449089818,0.334919554
5.451090218,0.331571656
5.453090618,0.296682981
5.455091018,0.246755644
5.457091418,0.252485642
5.459091818,0.309065636
5.461092218,0.417942324
5.463092619,0.168059309
5.465093019,0.239383465
5.467093419,0.175128543
5.469093819,0.317931338
5.471094219,0.378160091
5.473094619,0.265097295
5.475095019,0.233055706
5.477095419,0.291773207
5.479095819,0.183467321
5.481096219,0.308729971
5.483096619,0.20835703
5.485097019,0.307233631
5.487097419,0.226081387
5.48909782,0.283510352
5.49109822,0.235781224
5.49309862,0.208857187
5.49509902,0.255478057
5.49709942,0.150893867
5.49909982,0.240728809
5.50110022,0.236702621
5.50310062,0.196113501
5.50510102,0.075315236
5.50710142,0.188619037
5.50910182,0.185382945
5.51110222,0.100946096
5.513102621,0.248916989
5.515103021,0.172636169
5.517103421,0.139342564
5.519103821,0.144870816
5.521104221,0.177392842
5.523104621,0.142799571
5.525105021,0.076993368
5.527105421,0.022740489
5.529105821,0.190522868
5.531106221,0.20806516
5.533106621,0.092284204
5.535107021,0.083934213
5.537107421,0.109119398
5.539107822,0.063661333
5.541108222,0.121360666
5.543108622,0.079195431
5.545109022,0.005726372
5.547109422,0.160982228
5.549109822,0.039624376
5.551110222,0.103158964
5.553110622,0.07301741
5.555111022,0.048596835
5.557111422,0.062494986
5.559111822,0.000145022
5.561112222,0.080060558
5.563112623,0.142124497
5.565113023,0.171337739
5.567113423,-0.039380874
5.569113823,0.025899628
5.571114223,0.080912135
5.573114623,0.077088478
5.575115023,0.1328939
5.577115423,0.023846608
5.579115823,0.164011186
5.581116223,0.141334416
5.583116623,0.076478292
5.585117023,0.088877351
5.587117423,-0.007990881
5.589117824,0.08382252
5.591118224,0.131718686
5.593118624,0.158794569
5.595119024,0.185268203
5.597119424,0.118542975
5.599119824,0.181316602
5.601120224,0.07404875
5.603120624,0.203261162
5.605121024,0.071950122
5.607121424,0.141211314
5.609121824,0.089152519
5.611122224,0.095709255
5.613122625,0.080936308
5.615123025,0.096253002
5.617123425,0.082804313
5.619123825,0.035326796
5.621124225,0.157241263
5.623124625,0.091736086
5.625125025,0.072505438
5.627125425,0.20475104
5.629125825,0.161488306
5.631126225,-0.039135512
5.633126625,0.092522832
5.635127025,0.081402161
5.637127425,0.084939622
5.639127826,0.181791149
5.641128226,0.187339686
5.643128626,0.187871369
5.645129026,0.085608367
5.647129426,0.218384102
5.649129826,0.233071178
5.651130226,0.10409821
5.653130626,0.112422522
5.655131026,0.071121288
5.657131426,0.225866431
5.659131826,0.093340575
5.661132226,0.074237177
5.663132627,0.115044825
5.665133027,0.121188921
5.667133427,0.028903231
5.669133827,0.008254354
5.671134227,0.093593886
5.673134627,0.116181702
5.675135027,0.090189768
5.677135427,0.033558219
5.679135827,0.102259387
5.681136227,0.003176894
5.683136627,-0.076254171
5.685137027,-0.005827533
5.687137427,0.025341597
5.689137828,0.052545726
5.691138228,0.034287639
5.693138628,-0.035155322
5.695139028,-0.029093221
5.697139428,-0.055682136
5.699139828,-0.072130051
5.701140228,-0.085273116
5.703140628,-0.092125379
5.705141028,-0.021820124
5.707141428,-0.165781595
5.709141828,-0.090445996
5.711142228,-0.116922872
5.713142629,-0.14287886
5.715143029,-0.093743701
5.717143429,-0.134791634
5.719143829,-0.150805106
5.721144229,-0.136342033
5.723144629,-0.174798572
5.725145029,-0.216948592
5.727145429,-0.120848014
5.729145829,-0.227499964
5.731146229,-0.157270106
5.733146629,-0.210675155
5.735147029,-0.26581071
5.737147429,-0.21973953
5.73914783,-0.272112758
5.74114823,-0.199800603
5.74314863,-0.217617164
5.74514903,-0.247530631
5.74714943,-0.151684077
5.74914983,-0.265071198
5.75115023,-0.286064436
5.75315063,-0.22845629
5.75515103,-0.108814688
5.75715143,-0.266026092
5.75915183,-0.273132147
5.76115223,-0.195228907
5.763152631,-0.238226357
5.765153031,-0.261692533
5.767153431,-0.247450963
5.769153831,-0.25515596
5.771154231,-0.278132137
5.773154631,-0.263132555
5.775155031,-0.225812473
5.777155431,-0.2267583
5.779155831,-0.178309083
5.781156231,-0.209093537
5.783156631,-0.238684006
5.785157031,-0.209824302
5.787157431,-0.189773657
5.789157832,-0.249222353
5.791158232,-0.224994193
5.793158632,-0.262570337
5.795159032,-0.27239593
5.797159432,-0.230950055
5.799159832,-0.211689609
5.801160232,-0.152462553
5.803160632,-0.135792619
5.805161032,-0.262388598
5.807161432,-0.119654331
5.809161832,-0.238402798
5.811162232,-0.151066491
5.813162633,-0.138623214
5.815163033,-0.167178504
5.817163433,-0.178771896
5.819163833,-0.101212762
5.821164233,-0.073395633
5.823164633,-0.1664082
5.825165033,-0.181045847
5.827165433,-0.108402178
5.829165833,-0.176053347
5.831166233,-0.183300182
5.833166633,-0.061579833
5.835167033,-0.11142566
5.837167433,-0.145101103
5.839167834,-0.075888709
5.841168234,-0.129845336
5.843168634,-0.115451643
5.845169034,-0.056513158
5.847169434,-0.040863182
5.849169834,-0.070297417
5.851170234,-0.106972126
5.853170634,-0.055978912
5.855171034,-0.109093115
5.857171434,-0.135738075
5.859171834,-0.145209569
5.861172234,-0.008074908
5.863172635,-0.102826746
5.865173035,-0.101499384
5.867173435,-0.174841813
5.869173835,-0.088010728
5.871174235,-0.073026025
5.873174635,-0.158658656
5.875175035,-0.123312612
5.877175435,-0.131623934
5.879175835,-0.11969523
5.881176235,-0.075300699
5.883176635,-0.203455994
5.885177035,-0.186685718
5.887177435,-0.150153646
5.889177836,-0.119230191
5.891178236,-0.125581138
5.893178636,-0.183663143
5.895179036,-0.06733075
5.897179436,-0.250456985
5.899179836,-0.153845448
5.901180236,-0.139854718
5.903180636,-0.176331685
5.905181036,-0.155594893
5.907181436,-0.11741236
5.909181836,-0.186702094
5.911182236,-0.164537007
5.913182637,-0.200072281
5.915183037,-0.190911357
5.917183437,-0.192826176
5.919183837,-0.184085908
5.921184237,-0.146600158
5.923184637,-0.182046531
5.925185037,-0.146337641
5.927185437,-0.222201757
5.929185837,-0.2005193
5.931186237,-0.19903134
5.933186637,-0.181614501
5.935187037,-0.165427263
5.937187437,-0.207923714
5.939187838,-0.230181469
5.941188238,-0.245413715
5.943188638,-0.186083536
5.945189038,-0.190617266
5.947189438,-0.143119755
5.949189838,-0.128968982
5.951190238,-0.23830004
5.953190638,-0.176286851
5.955191038,-0.174436787
5.957191438,-0.154357905
5.959191838,-0.235614114
5.961192238,-0.176862985
5.963192639,-0.066453798
5.965193039,-0.165564561
5.967193439,-0.161180194
5.969193839,-0.08645106
5.971194239,-0.079198265
5.973194639,-0.099782772
5.975195039,-0.157323158
5.977195439,-0.097151071
5.979195839,-0.060989897
5.981196239,-0.046723601
5.983196639,-0.084110071
5.985197039,-0.033094318
5.987197439,-0.055849118
5.98919784,-0.021068241
5.99119824,-0.05027603
5.99319864,0.029921319
5.99519904,-0.012062178
5.99719944,-0.107009268
5.99919984,-0.010139204
6.00120024,0.491479338
6.00320064,0.468121226
6.00520104,0.616420312
6.00720144,0.472527325
6.00920184,0.618684623
6.01120224,0.465525818
6.013202641,0.621807267
6.015203041,0.548791872
6.017203441,0.506632049
6.019203841,0.576662494
6.021204241,0.638219323
6.023204641,0.497793851
6.025205041,0.627156031
6.027205441,0.536752586
6.029205841,0.522925528
6.031206241,0.48465213
6.033206641,0.541692126
6.035207041,0.527523248
6.037207441,0.516185954
6.039207842,0.517097772
6.041208242,0.517316848
6.043208642,0.532180692
6.045209042,0.502158658
6.047209442,0.538246367
6.049209842,0.528110359
6.051210242,0.47337673
6.053210642,0.384804542
6.055211042,0.525722586
6.057211442,0.476575345
6.059211842,0.436479875
6.061212242,0.42794228
6.063212643,0.395979197
6.065213043,0.442237521
6.067213443,0.402035102
6.069213843,0.267961702
6.071214243,0.364281455
6.073214643,0.331720454
6.075215043,0.302274951
6.077215443,0.310572237
6.079215843,0.416912168
6.081216243,0.335768093
6.083216643,0.262506712
6.085217043,0.367517884
6.087217443,0.239930591
6.089217844,0.294555157
6.091218244,0.227196127
6.093218644,0.225347039
6.095219044,0.238941391
6.097219444,0.228815131
6.099219844,0.235076022
6.101220244,0.163019912
6.103220644,0.294732336
6.105221044,0.261641042
6.107221444,0.124721651
6.109221844,0.271232322
6.111222244,0.19138827
6.113222645,0.150753098
6.115223045,0.182351895
6.117223445,0.117080944
6.119223845,0.157419036
6.121224245,0.146801089
6.123224645,0.093346142
6.125225045,0.152911524
6.127225445,0.074192399
6.129225845,0.11766811
6.131226245,0.165292038
6.133226645,0.113017864
6.135227045,0.149915546
6.137227445,0.104386623
6.139227846,0.089467602
6.141228246,0.096974772
6.143228646,0.105812929
6.145229046,0.103101302
6.147229446,0.073726654
6.149229846,0.101294071
6.151230246,0.106528328
6.153230646,0.078549034
6.155231046,0.150956025
6.157231446,0.126564376
6.159231846,0.110677915
6.161232246,0.073410408
6.163232647,0.151656681
6.165233047,0.115609754
6.167233447,0.123556369
6.169233847,0.149302007
6.171234247,0.095759428
6.173234647,0.138750746
6.175235047,0.074500368
6.177235447,0.144867019
6.179235847,0.112406185
6.181236247,0.133191452
6.183236647,0.170542417
6.185237047,0.222522908
6.187237447,0.168489715
6.189237848,0.048150164
6.191238248,0.152336239
6.193238648,0.281199807
6.195239048,0.214939306
6.197239448,0.158778722
6.199239848,0.195137409
6.201240248,0.266431414
6.203240648,0.195833551
6.205241048,0.273765323
6.207241448,0.211950107
6.209241848,0.12274558
6.211242248,0.292953378
6.213242649,0.304125274
6.215243049,0.25702491
6.217243449,0.317003142
6.219243849,0.217647701
6.221244249,0.261437823
6.223244649,0.211454334
6.225245049,0.226060717
6.227245449,0.254789677
6.229245849,0.320172733
6.231246249,0.23228717
6.233246649,0.25680332
6.235247049,0.325305315
6.237247449,0.235761866
6.23924785,0.336243859
6.24124825,0.293598675
6.24324865,0.146140919
6.24524905,0.125213401
6.24724945,0.203187626
6.24924985,0.212086438
6.25125025,0.150920797
6.25325065,0.159265637
6.25525105,0.208406703
6.25725145,0.203883104
6.25925185,0.32297449
6.26125225,0.195033721
6.263252651,0.303565717
6.265253051,0.206904629
6.267253451,0.163734282
6.269253851,0.136849991
6.271254251,0.245245519
6.273254651,0.130498349
6.275255051,0.179830383
6.277255451,0.252149911
6.279255851,0.076381409
6.281256251,0.193760773
6.283256651,0.187315916
6.285257051,0.213240506
6.287257451,0.116892588
6.289257852,0.016500457
6.291258252,0.026554508
6.293258652,0.184754495
6.295259052,0.151477497
6.297259452,0.063745818
6.299259852,0.064319107
6.301260252,0.087991703
6.303260652,0.031586963
6.305261052,-0.016213971
6.307261452,-0.004488367
6.309261852,0.007265606
6.311262252,0.100003286
6.313262653,-0.024690113
6.315263053,-0.000705033
6.317263453,-0.05240889
6.319263853,-0.021834804
6.321264253,-0.166583234
6.323264653,0.04465358
6.325265053,0.002827805
6.327265453,-0.102292961
6.329265853,-0.025080422
6.331266253,-0.052605922
6.333266653,-0.144288246
6.335267053,-0.033512632
6.337267453,-0.064470678
6.339267854,-0.129982141
6.341268254,-0.102836638
6.343268654,-0.123859707
6.345269054,-0.139262591
6.347269454,-0.145652778
6.349269854,-0.064075029
6.351270254,-0.172298356
6.353270654,-0.143518928
6.355271054,-0.192908567
6.357271454,-0.121038957
6.359271854,-0.116594169
6.361272254,-0.140826093
6.363272655,-0.132172182
6.365273055,-0.179269774
6.367273455,-0.186403925
6.369273855,-0.132347732
6.371274255,-0.163795649
6.373274655,-0.164201208
6.375275055,-0.07334928
6.377275455,-0.152901808
6.379275855,-0.121536079
6.381276255,-0.142958074
6.383276655,-0.182026307
6.385277055,-0.200131005
6.387277455,-0.157099127
6.389277856,-0.062977943
6.391278256,-0.119189983
6.393278656,-0.113422072
6.395279056,-0.155717643
6.397279456,-0.144894424
6.399279856,-0.114868089
6.401280256,-0.106908472
6.403280656,-0.169231826
6.405281056,-0.133297277
6.407281456,-0.138983562
6.409281856,-0.097123998
6.411282256,-0.089602073
6.413282657,-0.162350014
6.415283057,-0.044356692
6.417283457,-0.157605245
6.419283857,-0.069015948
6.421284257,-0.059628048
6.423284657,0.041828965
6.425285057,-0.05510344
6.427285457,0.023622475
6.429285857,-0.055881781
6.431286257,-0.0850621
6.433286657,-0.087640897
6.435287057,-0.092834636
6.437287457,-0.083833698
6.439287858,-0.033867245
6.441288258,-0.032864492
6.443288658,-0.054194423
6.445289058,-0.084619812
6.447289458,-0.055655604
6.449289858,-0.133367444
6.451290258,-0.120906801
6.453290658,-0.065751194
6.455291058,-0.029470771
6.457291458,-0.198337462
6.459291858,-0.047499299
6.461292258,-0.161346092
6.463292659,-0.170607843
6.465293059,-0.09259793
6.467293459,-0.047824382
6.469293859,-0.174010765
6.471294259,-0.25132716
6.473294659,-0.071071025
6.475295059,-0.19120044
6.477295459,-0.063792988
6.479295859,-0.133468703
6.481296259,-0.196186693
6.483296659,-0.219778501
6.485297059,-0.121137248
6.487297459,-0.182625296
6.48929786,-0.131661562
6.49129826,-0.134770731
6.49329866,-0.135515372
6.49529906,-0.177217518
6.49729946,-0.248853292
6.49929986,-0.167292556
6.50130026,-0.279663148
6.50330066,-0.279295899
6.50530106,-0.273743357
6.50730146,-0.168445419
6.50930186,-0.198158274
6.51130226,-0.168786691
6.513302661,-0.305940919
6.515303061,-0.347636148
6.517303461,-0.199085549
6.519303861,-0.274338057
6.521304261,-0.2195293
6.523304661,-0.202839802
6.525305061,-0.274319069
6.527305461,-0.270277292
6.529305861,-0.24320649
6.531306261,-0.234295672
6.533306661,-0.248119265
6.535307061,-0.278328864
6.537307461,-0.263519974
6.539307862,-0.220844175
6.541308262,-0.299179337
6.543308662,-0.246171718
6.545309062,-0.293271002
6.547309462,-0.22921222
6.549309862,-0.277218648
6.551310262,-0.284664164
6.553310662,-0.268570563
6.555311062,-0.196239623
6.557311462,-0.25516551
6.559311862,-0.275955299
6.561312262,-0.241892472
6.563312663,-0.261710482
6.565313063,-0.230452279
6.567313463,-0.179981743
6.569313863,-0.271733586
6.571314263,-0.217210012
6.573314663,-0.282277567
6.575315063,-0.182038319
6.577315463,-0.188682517
6.579315863,-0.231006222
6.581316263,-0.213781393
6.583316663,-0.166987324
6.585317063,-0.175387793
6.587317463,-0.207456329
6.589317864,-0.185100167
6.591318264,-0.178226145
6.593318664,-0.177655082
6.595319064,-0.175488499
6.597319464,-0.157066744
6.599319864,-0.147807037
6.601320264,-0.06819779
6.603320664,-0.106690174
6.605321064,-0.071545655
6.607321464,-0.081667199
6.609321864,-0.083555557
6.611322264,-0.134140153
6.613322665,-0.033964064
6.615323065,-0.061319328
6.617323465,0.051338544
6.619323865,-0.157249085
6.621324265,0.059098252
6.623324665,-0.041613762
6.625325065,-0.037844229
6.627325465,-0.00919877
6.629325865,-0.014633692
6.631326265,0.007885913
6.633326665,0.026190474
6.635327065,0.021218814
6.637327465,0.171610123
6.639327866,0.115809822
6.641328266,-0.035605958
6.643328666,0.026590897
6.645329066,0.011998272
6.647329466,0.039662809
6.649329866,0.089158801
6.651330266,0.040620029
6.653330666,0.113812067
6.655331066,0.047241975
6.657331466,0.106950093
6.659331866,0.098862978
6.661332266,0.037199917
6.663332667,0.153367367
6.665333067,0.083858823
6.667333467,0.045691073
6.669333867,0.098950351
6.671334267,-0.021183236
6.673334667,0.070399912
6.675335067,0.077288491
6.677335467,0.051330093
6.679335867,0.207349386
6.681336267,0.096106252
6.683336667,0.103257456
6.685337067,0.08731465
6.687337467,0.03697016
6.689337868,0.105483486
6.691338268,0.040181884
6.693338668,0.026969164
6.695339068,0.012239153
6.697339468,0.093862729
6.699339868,0.068497497
6.701340268,0.016966708
6.703340668,0.139750615
6.705341068,0.011241489
6.707341468,0.083443271
6.709341868,0.080603833
6.711342268,0.163976736
6.713342669,0.08068632
6.715343069,0.11881889
6.717343469,-0.006211082
6.719343869,0.036970252
6.721344269,0.003537176
6.723344669,0.034286225
6.725345069,0.074514797
6.727345469,-0.004514948
6.729345869,0.054247916
6.731346269,0.000424438
6.733346669,0.108264458
6.735347069,0.046189139
6.737347469,-0.025763502
6.73934787,0.044548713
6.74134827,0.157195736
6.74334867,0.06513949
6.74534907,0.041945584
6.74734947,0.029156786
6.74934987,0.0188982
6.75135027,0.026067588
6.75335067,0.11253252
6.75535107,0.028828089
6.75735147,-0.034314486
6.75935187,0.073870676
6.76135227,0.143315786
6.763352671,0.048504119
6.765353071,0.10793496
6.767353471,0.122998283
6.769353871,0.080795527
6.771354271,0.093118711
6.773354671,0.083432378
6.775355071,0.142597645
6.777355471,0.088535652
6.779355871,0.125497341
6.781356271,0.039672436
6.783356671,0.10225476
6.785357071,0.077521331
6.787357471,0.181164877
6.789357872,0.111199119
6.791358272,0.077204463
6.793358672,0.122828014
6.795359072,0.152219534
6.797359472,0.201632083
6.799359872,0.188293177
6.801360272,0.209318183
6.803360672,0.193878788
6.805361072,0.19202476
6.807361472,0.129165893
6.809361872,0.237189768
6.811362272,0.22317612
6.813362673,0.210904882
6.815363073,0.249492928
6.817363473,0.215927215
6.819363873,0.255191584
6.821364273,0.240615219
6.823364673,0.187134818
6.825365073,0.267241562
6.827365473,0.210745335
6.829365873,0.30843774
6.831366273,0.222524719
6.833366673,0.203503628
6.835367073,0.245396898
6.837367473,0.356089283
6.839367874,0.301443327
6.841368274,0.298960936
6.843368674,0.305437112
6.845369074,0.33020503
6.847369474,0.178199229
6.849369874,0.271905906
6.851370274,0.327592634
6.853370674,0.298915714
6.855371074,0.275611843
6.857371474,0.320503717
6.859371874,0.305988602
6.861372274,0.27115005
6.863372675,0.263573034
6.865373075,0.249302148
6.867373475,0.267890025
6.869373875,0.206653918
6.871374275,0.232447818
6.873374675,0.20876313
6.875375075,0.231090237
6.877375475,0.245166266
6.879375875,0.223618199
6.881376275,0.269349381
6.883376675,0.160823519
6.885377075,0.194203629
6.887377475,0.191704081
6.889377876,0.203086575
6.891378276,0.269464232
6.893378676,0.209260386
6.895379076,0.275523545
6.897379476,0.2758785
6.899379876,0.188549352
6.901380276,0.216662959
6.903380676,0.130583248
6.905381076,0.136593039
6.907381476,0.11651325
6.909381876,0.124713456
6.911382276,0.083653518
6.913382677,0.174299453
6.915383077,0.084047934
6.917383477,0.038935851
6.919383877,0.071891973
6.921384277,0.094438862
6.923384677,0.08314488
6.925385077,0.126301516
6.927385477,0.106865262
6.929385877,0.071949189
6.931386277,-0.054195655
6.933386677,-0.029430573
6.935387077,0.083555338
6.937387477,0.115268284
6.939387878,0.00051744
6.941388278,0.065737117
6.943388678,-0.044471063
6.945389078,0.043952106
6.947389478,-0.051140181
6.949389878,-0.080612547
6.951390278,0.015556853
6.953390678,0.063446877
6.955391078,-0.036870092
6.957391478,-0.06924906
6.959391878,-0.056919856
6.961392278,-0.116172444
6.963392679,-0.054738998
6.965393079,0.016432454
6.967393479,-0.116786235
6.969393879,0.040844775
6.971394279,0.012798273
6.973394679,-0.08432462
6.975395079,0.016339286
6.977395479,-0.072660241
6.979395879,0.022029289
6.981396279,-0.035357113
6.983396679,0.078082141
6.985397079,-0.035975263
6.987397479,-0.034126365
6.98939788,0.007384323
6.99139828,-0.032091253
6.99339868,-0.054679857
6.99539908,-0.047759143
6.99739948,-0.09374537
6.99939988,0.068467637
7.00140028,0.576159876
7.00340068,0.511607393
7.00540108,0.473541853
7.00740148,0.543710284
7.00940188,0.46582575
7.01140228,0.581716032
7.013402681,0.468885333
7.015403081,0.469489012
7.017403481,0.535459563
7.019403881,0.49076784
7.021404281,0.567353497
7.023404681,0.420115646
7.025405081,0.478334465
7.027405481,0.481684008
7.029405881,0.375104202
7.031406281,0.394094761
7.033406681,0.458314219
7.035407081,0.389174999
7.037407481,0.379400854
7.039407882,0.402441898
7.041408282,0.424812705
7.043408682,0.484674236
7.045409082,0.378271334
7.047409482,0.315774214
7.049409882,0.297487543
7.051410282,0.317396629
7.053410682,0.251951787
7.055411082,0.280830224
7.057411482,0.279958681
7.059411882,0.306535196
7.061412282,0.279134384
7.063412683,0.185953872
7.065413083,0.145162598
7.067413483,0.160053192
7.069413883,0.166641103
7.071414283,0.140311031
7.073414683,0.133996054
7.075415083,0.092460979
7.077415483,-0.019338779
7.079415883,0.0381756
7.081416283,0.093570459
7.083416683,0.011521593
7.085417083,-0.108339473
7.087417483,0.09978018
7.089417884,-0.033713725
7.091418284,-0.047892348
7.093418684,-0.052390885
7.095419084,-0.091287071
7.097419484,-0.083355876
7.099419884,-0.078042962
7.101420284,-0.086303061
7.103420684,-0.054119777
7.105421084,-0.104469489
7.107421484,-0.127884716
7.109421884,-0.162095569
7.111422284,-0.169346747
7.113422685,-0.176938569
7.115423085,-0.135029303
7.117423485,-0.226962717
7.119423885,-0.204305086
7.121424285,-0.229101734
7.123424685,-0.188141487
7.125425085,-0.178694454
7.127425485,-0.268352468
7.129425885,-0.289444697
7.131426285,-0.237985488
7.133426685,-0.224060497
7.135427085,-0.328936225
7.137427485,-0.283932951
7.139427886,-0.19466035
7.141428286,-0.281399943
7.143428686,-0.328760529
7.145429086,-0.241723373
7.147429486,-0.213997297
7.149429886,-0.368202673
7.151430286,-0.319540331
7.153430686,-0.256448432
7.155431086,-0.349430109
7.157431486,-0.333554003
7.159431886,-0.219115337
7.161432286,-0.271699214
7.163432687,-0.379048992
7.165433087,-0.395354809
7.167433487,-0.372458786
7.169433887,-0.350498328
7.171434287,-0.348677525
7.173434687,-0.361780014
7.175435087,-0.306925595
7.177435487,-0.241793311
7.179435887,-0.236121797
7.181436287,-0.264782046
7.183436687,-0.257327194
7.185437087,-0.215528633
7.187437487,-0.164907845
7.189437888,-0.231904324
7.191438288,-0.225160956
7.193438688,-0.180076635
7.195439088,-0.199387731
7.197439488,-0.202560761
7.199439888,-0.19733514
7.201440288,-0.20287841
7.203440688,-0.074870613
7.205441088,-0.053792575
7.207441488,-0.140059148
7.209441888,-0.186390676
7.211442288,-0.144907426
7.213442689,-0.071737161
7.215443089,-0.081064197
7.217443489,-0.140360401
7.219443889,-0.175860338
7.221444289,-0.116230568
7.223444689,-0.099061564
7.225445089,-0.068302784
7.227445489,-0.079446939
7.229445889,-0.053098233
7.231446289,-0.053122701
7.233446689,-0.092257261
7.235447089,-0.028152512
7.237447489,-0.039274932
7.23944789,-0.109227736
7.24144829,-0.101591919
7.24344869,-0.002532181
7.24544909,0.029337159
7.24744949,-0.018632983
7.24944989,0.056008324
7.25145029,-0.004397061
7.25345069,-0.04765068
7.25545109,-0.061456663
7.25745149,0.059701269
7.25945189,-0.049623389
7.26145229,0.011920421
7.263452691,-0.051302596
7.265453091,0.037104157
7.267453491,-0.021814638
7.269453891,0.092241146
7.271454291,-0.029982663
7.273454691,-0.048582467
7.275455091,-0.080451511
7.277455491,-0.061232542
7.279455891,-0.010949891
7.281456291,-0.117208991
7.283456691,-0.099545869
7.285457091,-0.068504269
7.287457491,-0.036651556
7.289457892,-0.147764063
7.291458292,-0.119993714
7.293458692,-0.040635936
7.295459092,-0.117315818
7.297459492,-0.135924336
7.299459892,-0.05741784
7.301460292,-0.059041993
7.303460692,-0.038821469
7.305461092,-0.160147329
7.307461492,-0.059383305
7.309461892,-0.107212362
7.311462292,-0.06220099
7.313462693,-0.062786964
7.315463093,-0.123525932
7.317463493,-0.096856414
7.319463893,-0.019396606
7.321464293,-0.068997327
7.323464693,-0.106119343
7.325465093,-0.045296024
7.327465493,-0.1700919
7.329465893,-0.099954835
7.331466293,-0.098470541
7.333466693,-0.088802099
7.335467093,-0.10427478
7.337467493,-0.089649718
7.339467894,-0.144459407
7.341468294,-0.098983449
7.343468694,-0.081922232
7.345469094,-0.094138357
7.347469494,-0.13514287
7.349469894,-0.085601148
7.351470294,-0.028608966
7.353470694,-0.085879435
7.355471094,0.055108463
7.357471494,-0.12408823
7.359471894,-0.071950602
7.361472294,-0.033289597
7.363472695,0.001966954
7.365473095,-0.052418344
7.367473495,-0.01447393
7.369473895,0.013415492
7.371474295,0.004479228
7.373474695,0.0292283
7.375475095,0.048424843
7.377475495,0.0581548
7.379475895,0.058258191
7.381476295,0.022546941
7.383476695,-0.041976532
7.385477095,-0.013786751
7.387477495,0.022020382
7.389477896,0.04547515
7.391478296,0.088602203
7.393478696,0.123141029
7.395479096,0.086708329
7.397479496,0.147843534
7.399479896,0.259214339
7.401480296,0.148766011
7.403480696,0.110887966
7.405481096,0.176861827
7.407481496,0.103304996
7.409481896,0.172820548
7.411482296,0.114566536
7.413482697,0.198513205
7.415483097,0.192160572
7.417483497,0.279254001
7.419483897,0.11369307
7.421484297,0.227355481
7.423484697,0.250236593
7.425485097,0.237302236
7.427485497,0.278976295
7.429485897,0.105715781
7.431486297,0.249381499
7.433486697,0.260780061
7.435487097,0.242338332
7.437487497,0.26656779
7.439487898,0.292715985
7.441488298,0.136780731
7.443488698,0.249632974
7.445489098,0.254431434
7.447489498,0.33485338
7.449489898,0.4228015
7.451490298,0.266054866
7.453490698,0.301641123
7.455491098,0.334999313
7.457491498,0.320361534
7.459491898,0.239053648
7.461492298,0.256880465
7.463492699,0.272528148
7.465493099,0.291977587
7.467493499,0.225292933
7.469493899,0.165518181
7.471494299,0.211551022
7.473494699,0.246254826
7.475495099,0.320661613
7.477495499,0.285439457
7.479495899,0.18616569
7.481496299,0.234593339
7.483496699,0.314022316
7.485497099,0.14970217
7.487497499,0.162658369
7.4894979,0.340048445
7.4914983,0.165965079
7.4934987,0.228182364
7.4954991,0.255547535
7.4974995,0.259869713
7.4994999,0.294917306
7.5015003,0.176858693
7.5035007,0.212985245
7.5055011,0.213918754
7.5075015,0.207608095
7.5095019,0.216316377
7.5115023,0.193781203
7.513502701,0.139828487
7.515503101,0.128106209
7.517503501,0.133306676
7.519503901,0.090386503
7.521504301,0.049312373
7.523504701,0.00580105
7.525505101,0.174399834
7.527505501,0.141110876
7.529505901,0.145072739
7.531506301,0.166280744
7.533506701,0.13979877
7.535507101,0.090997787
7.537507502,0.120108815
7.539507902,0.081613462
7.541508302,0.09970601
7.543508702,0.100179402
7.545509102,0.09496586
7.547509502,0.033642663
7.549509902,0.004105746
7.551510302,0.125808688
7.553510702,0.075873325
7.555511102,0.087730141
7.557511502,0.045819421
7.559511902,0.041517439
7.561512302,0.024453441
7.563512703,0.080144141
7.565513103,0.101409202
7.567513503,0.103150513
7.569513903,0.052805895
7.571514303,0.137399168
7.573514703,0.086380566
7.575515103,0.157103421
7.577515503,0.007814772
7.579515903,0.094713909
7.581516303,0.09468191
7.583516703,0.105889232
7.585517103,0.095424593
7.587517504,0.09081331
7.589517904,0.040570123
7.591518304,0.058015354
7.593518704,0.197759649
7.595519104,0.044516523
7.597519504,0.090127799
7.599519904,0.064921582
7.601520304,0.108909413
7.603520704,0.120186305
7.605521104,0.207710373
7.607521504,0.103972932
7.609521904,0.072621352
7.611522304,0.086200648
7.613522705,0.135863427
7.615523105,0.170254318
7.617523505,0.178891401
7.619523905,0.095883628
7.621524305,0.177576409
7.623524705,0.184874438
7.625525105,0.111962248
7.627525505,0.207463323
7.629525905,0.10538991
7.631526305,0.193681696
7.633526705,0.063351895
7.635527105,0.110889931
7.637527506,0.068236154
7.639527906,0.086980954
7.641528306,0.164208247
7.643528706,0.172160547
7.645529106,0.142922748
7.647529506,0.137827902
7.649529906,0.135639108
7.651530306,0.117151156
7.653530706,0.119035305
7.655531106,0.045468146
7.657531506,0.092255795
7.659531906,0.080392051
7.661532306,0.143311752
7.663532707,0.073533865
7.665533107,0.088451419
7.667533507,0.05578451
7.669533907,0.024342351
7.671534307,0.091789187
7.673534707,0.053357955
7.675535107,0.02147658
7.677535507,0.089255786
7.679535907,0.062180877
7.681536307,0.013632365
7.683536707,0.004253978
7.685537107,-0.018765447
7.687537508,0.068394463
7.689537908,-0.006979488
7.691538308,-0.072975777
7.693538708,0.025315397
7.695539108,-0.059898533
7.697539508,0.003795526
7.699539908,-0.125777905
7.701540308,-0.029870558
7.703540708,-0.054563218
7.705541108,-0.063778545
7.707541508,0.018124713
7.709541908,-0.087252569
7.711542308,-0.030250744
7.713542709,-0.116096237
7.715543109,-0.272714947
7.717543509,-0.154583555
7.719543909,-0.126565156
7.721544309,-0.203436076
7.723544709,-0.182223218
7.725545109,-0.10659782
7.727545509,-0.167782904
7.729545909,-0.327355028
7.731546309,-0.200019747
7.733546709,-0.165890563
7.735547109,-0.132657651
7.73754751,-0.262451641
7.73954791,-0.198693387
7.74154831,-0.277079335
7.74354871,-0.244607001
7.74554911,-0.244539498
7.74754951,-0.160651041
7.74954991,-0.237309775
7.75155031,-0.317329312
7.75355071,-0.239183742
7.75555111,-0.207014391
7.75755151,-0.266857519
7.75955191,-0.257243641
7.76155231,-0.209437963
7.763552711,-0.206412207
7.765553111,-0.228886737
7.767553511,-0.229898911
7.769553911,-0.144747698
7.771554311,-0.277377515
7.773554711,-0.263247129
7.775555111,-0.225058612
7.777555511,-0.175931893
7.779555911,-0.192923568
7.781556311,-0.227810118
7.783556711,-0.24818917
7.785557111,-0.244455403
7.787557512,-0.254850885
7.789557912,-0.228183706
7.791558312,-0.231115835
7.793558712,-0.233157902
7.795559112,-0.28161735
7.797559512,-0.23583126
7.799559912,-0.126213172
7.801560312,-0.153140364
7.803560712,-0.192390456
7.805561112,-0.228325486
7.807561512,-0.126581553
7.809561912,-0.038071132
7.811562312,-0.192647214
7.813562713,-0.252202437
7.815563113,-0.148637525
7.817563513,-0.227797252
7.819563913,-0.116122239
7.821564313,-0.119465882
7.823564713,-0.092236264
7.825565113,-0.137790456
7.827565513,-0.142545512
7.829565913,-0.104741751
7.831566313,-0.040954701
7.833566713,-0.079109265
7.835567113,-0.12258288
7.837567514,-0.13891368
7.839567914,-0.049580559
7.841568314,-0.035222745
7.843568714,-0.085468362
7.845569114,-0.123176858
7.847569514,-0.068006115
7.849569914,-0.075381181
7.851570314,-0.056557371
7.853570714,-0.103951016
7.855571114,-0.138860684
7.857571514,-0.069599892
7.859571914,-0.202923463
7.861572314,-0.107155099
7.863572715,-0.138472382
7.865573115,-0.109394943
7.867573515,-0.146614044
7.869573915,-0.056535293
7.871574315,-0.149026855
7.873574715,-0.195354229
7.875575115,-0.119878736
7.877575515,-0.186181989
7.879575915,-0.148898999
7.881576315,-0.104277638
7.883576715,-0.190543212
7.885577115,-0.107800918
7.887577516,-0.147479174
7.889577916,-0.113323505
7.891578316,-0.095271642
7.893578716,-0.064924485
7.895579116,-0.146059935
7.897579516,-0.126380304
7.899579916,-0.191858163
7.901580316,-0.243829207
7.903580716,-0.149332892
7.905581116,-0.119437006
7.907581516,-0.202759699
7.909581916,-0.120765886
7.911582316,-0.179538573
7.913582717,-0.137411811
7.915583117,-0.133387262
7.917583517,-0.253222566
7.919583917,-0.246145898
7.921584317,-0.117152311
7.923584717,-0.119834534
7.925585117,-0.257812692
7.927585517,-0.271094015
7.929585917,-0.254447883
7.931586317,-0.209830845
7.933586717,-0.133409141
7.935587117,-0.124642479
7.937587518,-0.164349063
7.939587918,-0.237343975
7.941588318,-0.159706195
7.943588718,-0.224842493
7.945589118,-0.249425883
7.947589518,-0.184274724
7.949589918,-0.206611589
7.951590318,-0.257807748
7.953590718,-0.189683767
7.955591118,-0.170583634
7.957591518,-0.19588284
7.959591918,-0.087043976
7.961592318,-0.151725835
7.963592719,-0.147585535
7.965593119,-0.22120175
7.967593519,-0.203888975
7.969593919,-0.176769745
7.971594319,-0.220350596
7.973594719,-0.172428192
7.975595119,-0.081694561
7.977595519,-0.034186147
7.979595919,-0.17144798
7.981596319,-0.221515719
7.983596719,-0.099124522
7.985597119,-0.061764714
7.98759752,-0.013888536
7.98959792,-0.053110861
7.99159832,-0.07106194
7.99359872,0.015097263
7.99559912,-0.009107901
7.99759952,0.04542302
7.99959992,-0.095242688
8.00160032,0.497764462
8.00360072,0.53232937
8.00560112,0.518472103
8.00760152,0.442860744
8.00960192,0.474962578
8.01160232,0.502213578
8.013602721,0.598856574
8.015603121,0.551036164
8.017603521,0.541383522
8.019603921,0.579202126
8.021604321,0.573298629
8.023604721,0.509736448
8.025605121,0.591039845
8.027605521,0.595107885
8.029605921,0.474099875
8.031606321,0.462796712
8.033606721,0.548336941
8.035607121,0.518861706
8.037607522,0.463526416
8.039607922,0.536930839
8.041608322,0.485904198
8.043608722,0.577117919
8.045609122,0.443573381
8.047609522,0.500610566
8.049609922,0.456002371
8.051610322,0.555867827
8.053610722,0.521959143
8.055611122,0.52356804
8.057611522,0.447639501
8.059611922,0.486983863
8.061612322,0.416764754
8.063612723,0.427746422
8.065613123,0.462125682
8.067613523,0.388882322
8.069613923,0.363505816
8.071614323,0.349912745
8.073614723,0.407078581
8.075615123,0.420359234
8.077615523,0.4183815
8.079615923,0.363141243
8.081616323,0.383421109
8.083616723,0.280259035
8.085617123,0.323722046
8.087617524,0.322167569
8.089617924,0.30417851
8.091618324,0.281138882
8.093618724,0.27213579
8.095619124,0.360364841
8.097619524,0.243205269
8.099619924,0.292113342
8.101620324,0.230407405
8.103620724,0.250170889
8.105621124,0.274428681
8.107621524,0.118212047
8.109621924,0.227755062
8.111622324,0.19002708
8.113622725,0.123777339
8.115623125,0.216831398
8.117623525,0.175719716
8.119623925,0.17380569
8.121624325,0.117791576
8.123624725,0.195024007
8.125625125,0.135857474
8.127625525,0.116396499
8.129625925,0.153403686
8.131626325,0.165412154
8.133626725,0.158329408
8.135627125,0.042273987
8.137627526,0.080626884
8.139627926,0.156697314
8.141628326,0.036383714
8.143628726,0.114337179
8.145629126,0.16308588
8.147629526,0.07909976
8.149629926,0.043881083
8.151630326,0.094672216
8.153630726,-0.026937942
8.155631126,0.108944057
8.157631526,0.137553006
8.159631926,0.125011044
8.161632326,0.192270569
8.163632727,0.032397448
8.165633127,0.127790815
8.167633527,0.059475362
8.169633927,0.162877534
8.171634327,0.125326056
8.173634727,0.125552104
8.175635127,0.085981024
8.177635527,0.225084351
8.179635927,0.143590515
8.181636327,0.041547923
8.183636727,0.116061897
8.185637127,0.123180719
8.187637528,0.169530952
8.189637928,0.192589008
8.191638328,0.168086896
8.193638728,0.267909206
8.195639128,0.219708605
8.197639528,0.220049485
8.199639928,0.222964591
8.201640328,0.207337673
8.203640728,0.243714197
8.205641128,0.196642715
8.207641528,0.255891715
8.209641928,0.196218771
8.211642328,0.193545927
8.213642729,0.23603823
8.215643129,0.212266558
8.217643529,0.229067446
8.219643929,0.180468849
8.221644329,0.278952858
8.223644729,0.199971856
8.225645129,0.142602472
8.227645529,0.28944881
8.229645929,0.295864475
8.231646329,0.329682308
8.233646729,0.233175512
8.235647129,0.260542561
8.23764753,0.253055031
8.23964793,0.275595974
8.24164833,0.218791826
8.24364873,0.263511038
8.24564913,0.267797861
8.24764953,0.156609364
8.24964993,0.198818076
8.25165033,0.274029619
8.25365073,0.15509868
8.25565113,0.325591809
8.25765153,0.195574664
8.25965193,0.23955382
8.26165233,0.272532409
8.263652731,0.222120339
8.265653131,0.168475504
8.267653531,0.216697401
8.269653931,0.257628956
8.271654331,0.111127889
8.273654731,0.260323295
8.275655131,0.244325202
8.277655531,0.147434824
8.279655931,0.091986076
8.281656331,0.184381715
8.283656731,0.254150365
8.285657131,0.078602673
8.287657532,0.120393056
8.289657932,0.065507192
8.291658332,0.06903798
8.293658732,0.092881226
8.295659132,0.053641785
8.297659532,0.036445653
8.299659932,0.041278891
8.301660332,0.123673392
8.303660732,-0.044402527
8.305661132,0.002005877
8.307661532,0.074369425
8.309661932,-0.00085806
8.311662332,0.056402404
8.313662733,-0.034168287
8.315663133,-0.012310334
8.317663533,0.048794759
8.319663933,0.0768312
8.321664333,-0.050471312
8.323664733,-0.030427144
8.325665133,-0.019457346
8.327665533,-0.032163881
8.329665933,-0.046593925
8.331666333,-0.092598643
8.333666733,-0.173621552
8.335667133,-0.102237548
8.337667534,-0.080205525
8.339667934,-0.06765743
8.341668334,-0.032714889
8.343668734,-0.1474935
8.345669134,-0.06898923
8.347669534,-0.089842089
8.349669934,-0.176314743
8.351670334,-0.030496403
8.353670734,-0.199330422
8.355671134,-0.113721636
8.357671534,-0.185830885
8.359671934,-0.198265741
8.361672334,-0.158357306
8.363672735,-0.165770704
8.365673135,-0.161098564
8.367673535,-0.122487915
8.369673935,-0.122209356
8.371674335,-0.112662269
8.373674735,-0.134519681
8.375675135,-0.163528534
8.377675535,-0.124530295
8.379675935,-0.117872581
8.381676335,-0.099460345
8.383676735,-0.181371099
8.385677135,-0.198452102
8.387677536,-0.066019068
8.389677936,-0.148888016
8.391678336,-0.104506209
8.393678736,-0.151479333
8.395679136,-0.202228477
8.397679536,-0.124440048
8.399679936,-0.158806587
8.401680336,-0.107575548
8.403680736,-0.115929247
8.405681136,-0.122565757
8.407681536,-0.175323313
8.409681936,-0.026202721
8.411682336,-0.091153402
8.413682737,-0.086617646
8.415683137,-0.126777838
8.417683537,-0.164819088
8.419683937,-0.163728626
8.421684337,-0.111125628
8.423684737,-0.019887471
8.425685137,-0.051987129
8.427685537,-0.073758776
8.429685937,-0.024449614
8.431686337,-0.189398496
8.433686737,-0.039722684
8.435687137,-0.082366438
8.437687538,-0.057627186
8.439687938,-0.076277007
8.441688338,-0.058884315
8.443688738,-0.030061438
8.445689138,-0.027908863
8.447689538,-0.14284777
8.449689938,-0.06189419
8.451690338,-0.055953302
8.453690738,-0.195449255
8.455691138,-0.140892754
8.457691538,-0.009635767
8.459691938,-0.034757679
8.461692338,-0.114103853
8.463692739,-0.122160623
8.465693139,-0.116785717
8.467693539,-0.063355191
8.469693939,-0.118751994
8.471694339,-0.164926581
8.473694739,-0.189734254
8.475695139,-0.137497665
8.477695539,-0.178558884
8.479695939,-0.057192654
8.481696339,-0.14317087
8.483696739,-0.115105743
8.485697139,-0.209291103
8.48769754,-0.165290406
8.48969794,-0.180282739
8.49169834,-0.136342073
8.49369874,-0.232023848
8.49569914,-0.210272415
8.49769954,-0.164523281
8.49969994,-0.102906539
8.50170034,-0.19568034
8.50370074,-0.239096207
8.50570114,-0.333226825
8.50770154,-0.223474606
8.50970194,-0.242568211
8.51170234,-0.300474161
8.513702741,-0.231399642
8.515703141,-0.16420885
8.517703541,-0.339305435
8.519703941,-0.286087296
8.521704341,-0.27189545
8.523704741,-0.193929083
8.525705141,-0.245409634
8.527705541,-0.236743719
8.529705941,-0.244602562
8.531706341,-0.199789246
8.533706741,-0.15669209
8.535707141,-0.24586575
8.537707542,-0.214095424
8.539707942,-0.255864948
8.541708342,-0.304674502
8.543708742,-0.302169113
8.545709142,-0.261504896
8.547709542,-0.303548667
8.549709942,-0.199899566
8.551710342,-0.258655675
8.553710742,-0.146634852
8.555711142,-0.238825317
8.557711542,-0.284037808
8.559711942,-0.312537473
8.561712342,-0.258932971
8.563712743,-0.222713058
8.565713143,-0.195184752
8.567713543,-0.166700906
8.569713943,-0.246141244
8.571714343,-0.22759205
8.573714743,-0.266139553
8.575715143,-0.213468062
8.577715543,-0.255445797
8.579715943,-0.259350559
8.581716343,-0.181807276
8.583716743,-0.176897677
8.585717143,-0.157528852
8.587717544,-0.182500265
8.589717944,-0.15732762
8.591718344,-0.173947237
8.593718744,-0.110634729
8.595719144,-0.094629237
8.597719544,-0.210738311
8.599719944,-0.071925561
8.601720344,-0.108761457
8.603720744,-0.084955812
8.605721144,-0.160410434
8.607721544,-0.077594883
8.609721944,-0.034366948
8.611722344,0.001842054
8.613722745,-0.032962642
8.615723145,-0.027504971
8.617723545,0.025297148
8.619723945,-0.041016167
8.621724345,-0.01073045
8.623724745,0.020038481
8.625725145,0.01529751
8.627725545,0.075426616
8.629725945,0.006455117
8.631726345,0.048580484
8.633726745,-0.017927624
8.635727145,0.079522697
8.637727546,0.030496011
8.639727946,0.036490335
8.641728346,-0.068236378
8.643728746,0.073117736
8.645729146,0.023833835
8.647729546,0.066291314
8.649729946,0.050904834
8.651730346,0.088467318
8.653730746,0.08869141
8.655731146,0.116306971
8.657731546,0.08308601
8.659731946,0.081760035
8.661732346,0.048169011
8.663732747,-0.046162015
8.665733147,0.080483017
8.667733547,0.101049263
8.669733947,0.047520508
8.671734347,0.079160938
8.673734747,0.0110003
8.675735147,0.177082434
8.677735547,0.051713791
8.679735947,0.128241586
8.681736347,0.067043532
8.683736747,0.017517682
8.685737147,0.151986797
8.687737548,0.081312882
8.689737948,0.041675804
8.691738348,0.0392532
8.693738748,0.072518897
8.695739148,0.030507307
8.697739548,0.096658693
8.699739948,0.022750295
8.701740348,0.094660622
8.703740748,0.151985273
8.705741148,0.06674764
8.707741548,0.08279342
8.709741948,0.000512179
8.711742348,-0.033457911
8.713742749,0.016905121
8.715743149,0.028818274
8.717743549,0.073298263
8.719743949,-0.060045356
8.721744349,-0.02394752
8.723744749,0.046996609
8.725745149,0.058382271
8.727745549,0.007272454
8.729745949,0.064210158
8.731746349,-0.009178102
8.733746749,-0.029182465
8.735747149,0.023857745
8.73774755,-0.007340176
8.73974795,0.072740478
8.74174835,-0.013083003
8.74374875,0.106284644
8.74574915,-0.031999065
8.74774955,-0.005440286
8.74974995,0.026826982
8.75175035,0.053032499
8.75375075,0.071132884
8.75575115,0.038847772
8.75775155,0.03616713
8.75975195,0.005256228
8.76175235,-0.000291891
8.763752751,0.043348372
8.765753151,0.101110194
8.767753551,0.174668307
8.769753951,0.131648046
8.771754351,0.183867175
8.773754751,0.115522478
8.775755151,0.048865675
8.777755551,0.12145381
8.779755951,0.120728408
8.781756351,0.180639982
8.783756751,0.031958637
8.785757151,0.158089397
8.787757552,0.155517401
8.789757952,0.087153753
8.791758352,0.195519351
8.793758752,0.194303718
8.795759152,0.146908438
8.797759552,0.099070364
8.799759952,0.188192809
8.801760352,0.157790179
8.803760752,0.234116462
8.805761152,0.0861275
8.807761552,0.314921813
8.809761952,0.207528934
8.811762352,0.270617768
8.813762753,0.286940001
8.815763153,0.292001057
8.817763553,0.329505212
8.819763953,0.245330464
8.821764353,0.189850636
8.823764753,0.270076551
8.825765153,0.277767928
8.827765553,0.351278666
8.829765953,0.305674432
8.831766353,0.259027758
8.833766753,0.268811564
8.835767153,0.222729543
8.837767554,0.308770799
8.839767954,0.312652583
8.841768354,0.310881649
8.843768754,0.290983892
8.845769154,0.297749926
8.847769554,0.24081463
8.849769954,0.353879744
8.851770354,0.366828901
8.853770754,0.322611887
8.855771154,0.345852034
8.857771554,0.298336932
8.859771954,0.24423188
8.861772354,0.292769211
8.863772755,0.238621067
8.865773155,0.308269256
8.867773555,0.222639889
8.869773955,0.1861084
8.871774355,0.261813505
8.873774755,0.267925708
8.875775155,0.244528239
8.877775555,0.235825245
8.879775955,0.332663454
8.881776355,0.205266505
8.883776755,0.22285381
8.885777155,0.304537622
8.887777556,0.228344424
8.889777956,0.229418043
8.891778356,0.172290081
8.893778756,0.138132157
8.895779156,0.161847614
8.897779556,0.176113296
8.899779956,0.176295625
8.901780356,0.083501156
8.903780756,0.138042064
8.905781156,0.182367224
8.907781556,0.142653652
8.909781956,0.187029754
8.911782356,0.131876008
8.913782757,0.059352474
8.915783157,0.15297278
8.917783557,0.141566807
8.919783957,0.076314701
8.921784357,0.067727255
8.923784757,0.122479244
8.925785157,0.098393376
8.927785557,-0.006008545
8.929785957,0.048295285
8.931786357,0.006650549
8.933786757,0.057205726
8.935787157,0.002717444
8.937787558,-0.082970137
8.939787958,0.030895763
8.941788358,0.165802326
8.943788758,-0.112048488
8.945789158,-0.023826346
8.947789558,-0.014031707
8.949789958,-0.036375147
8.951790358,-0.042470217
8.953790758,-0.078450578
8.955791158,-0.028785807
8.957791558,-0.040828695
8.959791958,-0.019073288
8.961792358,-0.009582353
8.963792759,-0.018892044
8.965793159,-0.075621164
8.967793559,-0.008176103
8.969793959,-0.040013992
8.971794359,-0.062686839
8.973794759,-0.001041111
8.975795159,0.014951107
8.977795559,-0.000641852
8.979795959,-0.048590343
8.981796359,-0.036164695
8.983796759,-0.038880521
8.985797159,-0.108068713
8.98779756,0.004268019
8.98979796,-0.063024554
8.99179836,0.020552349
8.99379876,-0.009670422
8.99579916,-0.071781164
8.99779956,-0.056156525
8.99979996,0.001959872
9.00180036,0.48645323
9.00380076,0.434678381
9.00580116,0.475447048
9.00780156,0.399090859
9.00980196,0.540375741
9.01180236,0.512658265
9.013802761,0.392005698
9.015803161,0.462331836
9.017803561,0.409253119
9.019803961,0.474835138
9.021804361,0.43097874
9.023804761,0.474016181
9.025805161,0.471984482
9.027805561,0.545481543
9.029805961,0.497678724
9.031806361,0.420830069
9.033806761,0.449193272
9.035807161,0.351427815
9.037807562,0.434500403
9.039807962,0.335333861
9.041808362,0.365620909
9.043808762,0.352755889
9.045809162,0.296723052
9.047809562,0.523759651
9.049809962,0.254073015
9.051810362,0.339084404
9.053810762,0.219090303
9.055811162,0.284694761
9.057811562,0.299618506
9.059811962,0.26685729
9.061812362,0.194257971
9.063812763,0.292804694
9.065813163,0.174230993
9.067813563,0.126144772
9.069813963,0.148804226
9.071814363,0.080317285
9.073814763,0.066253555
9.075815163,0.053670725
9.077815563,0.072316022
9.079815963,0.096819562
9.081816363,-0.017310158
9.083816763,0.040627981
9.085817163,-0.05160766
9.087817564,-0.047618847
9.089817964,-0.064532392
9.091818364,-0.052178566
9.093818764,-0.058609819
9.095819164,-0.009342564
9.097819564,-0.151753824
9.099819964,-0.093899544
9.101820364,-0.109984325
9.103820764,-0.136036109
9.105821164,-0.075899383
9.107821564,-0.207867827
9.109821964,-0.232332887
9.111822364,-0.164362666
9.113822765,-0.158926607
9.115823165,-0.096607184
9.117823565,-0.226229312
9.119823965,-0.106566671
9.121824365,-0.265690263
9.123824765,-0.314502884
9.125825165,-0.247333427
9.127825565,-0.340049492
9.129825965,-0.227864256
9.131826365,-0.15469334
9.133826765,-0.294003226
9.135827165,-0.282165365
9.137827566,-0.232175452
9.139827966,-0.308084696
9.141828366,-0.342027202
9.143828766,-0.304934418
9.145829166,-0.345227139
9.147829566,-0.377651764
9.149829966,-0.326019457
9.151830366,-0.266056221
9.153830766,-0.316952811
9.155831166,-0.214693877
9.157831566,-0.252053338
9.159831966,-0.330303271
9.161832366,-0.296660724
9.163832767,-0.300287652
9.165833167,-0.167219496
9.167833567,-0.259128041
9.169833967,-0.252409739
9.171834367,-0.335469601
9.173834767,-0.300961715
9.175835167,-0.293629808
9.177835567,-0.213795969
9.179835967,-0.291461796
9.181836367,-0.308952519
9.183836767,-0.348199751
9.185837167,-0.240925366
9.187837568,-0.184320234
9.189837968,-0.133482236
9.191838368,-0.171901364
9.193838768,-0.145878032
9.195839168,-0.155555466
9.197839568,-0.196934554
9.199839968,-0.176998991
9.201840368,-0.18883886
9.203840768,-0.206730799
9.205841168,-0.150766634
9.207841568,-0.115966427
9.209841968,-0.134395431
9.211842368,-0.183403113
9.213842769,-0.16086771
9.215843169,-0.028478671
9.217843569,-0.139180692
9.219843969,-0.185012023
9.221844369,-0.169904111
9.223844769,-0.072203131
9.225845169,-0.16281781
9.227845569,-0.051941895
9.229845969,-0.027382283
9.231846369,-0.050891147
9.233846769,-0.032903586
9.235847169,-0.076363749
9.23784757,-0.010983299
9.23984797,-0.088078379
9.24184837,-0.08515141
9.24384877,-0.018283867
9.24584917,-0.036772143
9.24784957,-0.01892738
9.24984997,-0.018199666
9.25185037,-0.013524759
9.25385077,-0.012972067
9.25585117,-0.029025629
9.25785157,-0.011362323
9.25985197,-0.043755393
9.26185237,-0.083447859
9.263852771,-0.023900552
9.265853171,-0.026906934
9.267853571,-0.063124526
9.269853971,0.012698341
9.271854371,-0.117512817
9.273854771,-0.087429125
9.275855171,-0.077830249
9.277855571,-0.011400424
9.279855971,-0.062867504
9.281856371,-0.114312203
9.283856771,-0.047223586
9.285857171,-0.028180687
9.287857572,0.059215206
9.289857972,-0.045031109
9.291858372,-0.020542672
9.293858772,-0.055091998
9.295859172,-0.039961236
9.297859572,-0.108027974
9.299859972,-0.011044642
9.301860372,-0.115376316
9.303860772,-0.079847943
9.305861172,-0.059138959
9.307861572,-0.063033201
9.309861972,-0.085177546
9.311862372,0.004771869
9.313862773,0.03682755
9.315863173,-0.054580612
9.317863573,-0.085311518
9.319863973,-0.053279112
9.321864373,-0.061419882
9.323864773,-0.102271561
9.325865173,-0.127328268
9.327865573,-0.092777238
9.329865973,-0.064749022
9.331866373,-0.059505126
9.333866773,-0.044361361
9.335867173,-0.12587277
9.337867574,-0.054424384
9.339867974,0.042413685
9.341868374,-0.073216393
9.343868774,-0.025260763
9.345869174,-0.10353606
9.347869574,-0.098345292
9.349869974,-0.013979163
9.351870374,-0.083084749
9.353870774,-0.006423581
9.355871174,-0.030972338
9.357871574,-0.098941366
9.359871974,-0.016182829
9.361872374,-0.036415446
9.363872775,-0.007971436
9.365873175,-0.117776924
9.367873575,-0.058311777
9.369873975,-0.055403898
9.371874375,0.100782571
9.373874775,0.024046771
9.375875175,0.020718606
9.377875575,0.064975245
9.379875975,-0.018145253
9.381876375,0.013986114
9.383876775,0.056893767
9.385877175,0.033155613
9.387877576,-0.032672314
9.389877976,0.097095414
9.391878376,0.067379234
9.393878776,0.060498087
9.395879176,0.209519535
9.397879576,0.176942747
9.399879976,0.153311724
9.401880376,0.157512573
9.403880776,0.166697436
9.405881176,0.234007447
9.407881576,0.168015925
9.409881976,0.202510394
9.411882376,0.133802752
9.413882777,0.178772122
9.415883177,0.171687757
9.417883577,0.234726906
9.419883977,0.225347024
9.421884377,0.198683822
9.423884777,0.23737277
9.425885177,0.215635736
9.427885577,0.205513887
9.429885977,0.162805014
9.431886377,0.301401939
9.433886777,0.206766828
9.435887177,0.257484313
9.437887578,0.182085676
9.439887978,0.225896102
9.441888378,0.264374853
9.443888778,0.29125061
9.445889178,0.209440161
9.447889578,0.248908017
9.449889978,0.267309957
9.451890378,0.237807764
9.453890778,0.304190941
9.455891178,0.233495422
9.457891578,0.352928829
9.459891978,0.219113658
9.461892378,0.327802716
9.463892779,0.292188941
9.465893179,0.279048098
9.467893579,0.409689044
9.469893979,0.216376108
9.471894379,0.215042477
9.473894779,0.238955326
9.475895179,0.208084173
9.477895579,0.298526193
9.479895979,0.231444822
9.481896379,0.230506151
9.483896779,0.297185059
9.485897179,0.248213699
9.48789758,0.16006118
9.48989798,0.204804405
9.49189838,0.259443282
9.49389878,0.315104049
9.49589918,0.285641173
9.49789958,0.186901688
9.49989998,0.21710475
9.50190038,0.079811515
9.50390078,0.225214293
